Created as New Dataset,Sample 013 By iruser Date Tuesday, March 24 2026
cm-1,%T
4200.00,100.62
4199.00,100.62
4198.00,100.62
4197.00,100.62
4196.00,100.62
4195.00,100.62
4194.00,100.63
4193.00,100.63
4192.00,100.63
4191.00,100.62
4190.00,100.62
4189.00,100.61
4188.00,100.61
4187.00,100.62
4186.00,100.63
4185.00,100.63
4184.00,100.63
4183.00,100.63
4182.00,100.62
4181.00,100.62
4180.00,100.61
4179.00,100.61
4178.00,100.61
4177.00,100.61
4176.00,100.61
4175.00,100.61
4174.00,100.61
4173.00,100.61
4172.00,100.61
4171.00,100.61
4170.00,100.61
4169.00,100.61
4168.00,100.61
4167.00,100.61
4166.00,100.61
4165.00,100.60
4164.00,100.60
4163.00,100.60
4162.00,100.59
4161.00,100.59
4160.00,100.59
4159.00,100.60
4158.00,100.60
4157.00,100.61
4156.00,100.61
4155.00,100.60
4154.00,100.60
4153.00,100.60
4152.00,100.60
4151.00,100.60
4150.00,100.60
4149.00,100.60
4148.00,100.60
4147.00,100.59
4146.00,100.59
4145.00,100.59
4144.00,100.58
4143.00,100.57
4142.00,100.57
4141.00,100.57
4140.00,100.58
4139.00,100.58
4138.00,100.58
4137.00,100.58
4136.00,100.58
4135.00,100.57
4134.00,100.57
4133.00,100.57
4132.00,100.57
4131.00,100.58
4130.00,100.58
4129.00,100.58
4128.00,100.57
4127.00,100.57
4126.00,100.56
4125.00,100.56
4124.00,100.56
4123.00,100.56
4122.00,100.56
4121.00,100.56
4120.00,100.56
4119.00,100.56
4118.00,100.56
4117.00,100.55
4116.00,100.55
4115.00,100.56
4114.00,100.56
4113.00,100.55
4112.00,100.55
4111.00,100.54
4110.00,100.54
4109.00,100.54
4108.00,100.54
4107.00,100.54
4106.00,100.54
4105.00,100.54
4104.00,100.53
4103.00,100.53
4102.00,100.52
4101.00,100.53
4100.00,100.53
4099.00,100.53
4098.00,100.54
4097.00,100.54
4096.00,100.54
4095.00,100.53
4094.00,100.53
4093.00,100.53
4092.00,100.52
4091.00,100.52
4090.00,100.51
4089.00,100.50
4088.00,100.50
4087.00,100.50
4086.00,100.51
4085.00,100.51
4084.00,100.51
4083.00,100.51
4082.00,100.51
4081.00,100.50
4080.00,100.50
4079.00,100.49
4078.00,100.48
4077.00,100.48
4076.00,100.48
4075.00,100.49
4074.00,100.49
4073.00,100.49
4072.00,100.49
4071.00,100.48
4070.00,100.48
4069.00,100.47
4068.00,100.47
4067.00,100.47
4066.00,100.47
4065.00,100.47
4064.00,100.46
4063.00,100.46
4062.00,100.46
4061.00,100.45
4060.00,100.45
4059.00,100.44
4058.00,100.44
4057.00,100.44
4056.00,100.44
4055.00,100.44
4054.00,100.44
4053.00,100.43
4052.00,100.43
4051.00,100.43
4050.00,100.43
4049.00,100.43
4048.00,100.43
4047.00,100.43
4046.00,100.43
4045.00,100.42
4044.00,100.42
4043.00,100.41
4042.00,100.41
4041.00,100.41
4040.00,100.41
4039.00,100.41
4038.00,100.41
4037.00,100.42
4036.00,100.42
4035.00,100.42
4034.00,100.41
4033.00,100.41
4032.00,100.40
4031.00,100.39
4030.00,100.38
4029.00,100.38
4028.00,100.37
4027.00,100.37
4026.00,100.37
4025.00,100.37
4024.00,100.37
4023.00,100.37
4022.00,100.37
4021.00,100.37
4020.00,100.38
4019.00,100.38
4018.00,100.38
4017.00,100.38
4016.00,100.39
4015.00,100.39
4014.00,100.39
4013.00,100.39
4012.00,100.39
4011.00,100.38
4010.00,100.38
4009.00,100.38
4008.00,100.39
4007.00,100.39
4006.00,100.39
4005.00,100.39
4004.00,100.38
4003.00,100.38
4002.00,100.38
4001.00,100.37
4000.00,100.38
3999.00,100.38
3998.00,100.38
3997.00,100.38
3996.00,100.38
3995.00,100.39
3994.00,100.39
3993.00,100.39
3992.00,100.39
3991.00,100.39
3990.00,100.40
3989.00,100.40
3988.00,100.40
3987.00,100.40
3986.00,100.40
3985.00,100.40
3984.00,100.41
3983.00,100.41
3982.00,100.41
3981.00,100.41
3980.00,100.41
3979.00,100.41
3978.00,100.41
3977.00,100.41
3976.00,100.41
3975.00,100.41
3974.00,100.42
3973.00,100.42
3972.00,100.43
3971.00,100.43
3970.00,100.43
3969.00,100.43
3968.00,100.43
3967.00,100.43
3966.00,100.43
3965.00,100.43
3964.00,100.43
3963.00,100.43
3962.00,100.43
3961.00,100.44
3960.00,100.44
3959.00,100.44
3958.00,100.44
3957.00,100.44
3956.00,100.44
3955.00,100.44
3954.00,100.44
3953.00,100.45
3952.00,100.45
3951.00,100.45
3950.00,100.46
3949.00,100.46
3948.00,100.46
3947.00,100.46
3946.00,100.46
3945.00,100.46
3944.00,100.46
3943.00,100.47
3942.00,100.48
3941.00,100.48
3940.00,100.48
3939.00,100.48
3938.00,100.48
3937.00,100.49
3936.00,100.49
3935.00,100.49
3934.00,100.49
3933.00,100.49
3932.00,100.50
3931.00,100.50
3930.00,100.51
3929.00,100.51
3928.00,100.50
3927.00,100.49
3926.00,100.48
3925.00,100.48
3924.00,100.49
3923.00,100.50
3922.00,100.51
3921.00,100.52
3920.00,100.53
3919.00,100.53
3918.00,100.52
3917.00,100.52
3916.00,100.51
3915.00,100.51
3914.00,100.51
3913.00,100.51
3912.00,100.51
3911.00,100.52
3910.00,100.52
3909.00,100.52
3908.00,100.53
3907.00,100.53
3906.00,100.53
3905.00,100.53
3904.00,100.55
3903.00,100.56
3902.00,100.56
3901.00,100.56
3900.00,100.55
3899.00,100.55
3898.00,100.55
3897.00,100.55
3896.00,100.55
3895.00,100.55
3894.00,100.55
3893.00,100.55
3892.00,100.55
3891.00,100.57
3890.00,100.57
3889.00,100.57
3888.00,100.56
3887.00,100.55
3886.00,100.55
3885.00,100.57
3884.00,100.57
3883.00,100.57
3882.00,100.57
3881.00,100.57
3880.00,100.58
3879.00,100.59
3878.00,100.59
3877.00,100.59
3876.00,100.58
3875.00,100.59
3874.00,100.60
3873.00,100.60
3872.00,100.60
3871.00,100.59
3870.00,100.59
3869.00,100.60
3868.00,100.60
3867.00,100.58
3866.00,100.57
3865.00,100.57
3864.00,100.58
3863.00,100.59
3862.00,100.60
3861.00,100.61
3860.00,100.60
3859.00,100.60
3858.00,100.60
3857.00,100.61
3856.00,100.61
3855.00,100.61
3854.00,100.61
3853.00,100.62
3852.00,100.61
3851.00,100.59
3850.00,100.57
3849.00,100.57
3848.00,100.58
3847.00,100.59
3846.00,100.60
3845.00,100.60
3844.00,100.60
3843.00,100.61
3842.00,100.62
3841.00,100.62
3840.00,100.62
3839.00,100.61
3838.00,100.61
3837.00,100.61
3836.00,100.60
3835.00,100.59
3834.00,100.59
3833.00,100.60
3832.00,100.61
3831.00,100.62
3830.00,100.63
3829.00,100.63
3828.00,100.62
3827.00,100.62
3826.00,100.63
3825.00,100.63
3824.00,100.62
3823.00,100.61
3822.00,100.61
3821.00,100.62
3820.00,100.63
3819.00,100.62
3818.00,100.61
3817.00,100.60
3816.00,100.61
3815.00,100.61
3814.00,100.61
3813.00,100.60
3812.00,100.61
3811.00,100.62
3810.00,100.62
3809.00,100.62
3808.00,100.61
3807.00,100.61
3806.00,100.62
3805.00,100.61
3804.00,100.59
3803.00,100.58
3802.00,100.57
3801.00,100.59
3800.00,100.60
3799.00,100.59
3798.00,100.59
3797.00,100.59
3796.00,100.60
3795.00,100.61
3794.00,100.61
3793.00,100.62
3792.00,100.62
3791.00,100.62
3790.00,100.61
3789.00,100.61
3788.00,100.60
3787.00,100.59
3786.00,100.59
3785.00,100.59
3784.00,100.59
3783.00,100.59
3782.00,100.59
3781.00,100.59
3780.00,100.59
3779.00,100.60
3778.00,100.60
3777.00,100.60
3776.00,100.60
3775.00,100.60
3774.00,100.60
3773.00,100.60
3772.00,100.59
3771.00,100.59
3770.00,100.59
3769.00,100.60
3768.00,100.60
3767.00,100.59
3766.00,100.58
3765.00,100.58
3764.00,100.58
3763.00,100.57
3762.00,100.56
3761.00,100.56
3760.00,100.56
3759.00,100.56
3758.00,100.57
3757.00,100.57
3756.00,100.57
3755.00,100.57
3754.00,100.57
3753.00,100.56
3752.00,100.55
3751.00,100.54
3750.00,100.55
3749.00,100.56
3748.00,100.56
3747.00,100.55
3746.00,100.54
3745.00,100.54
3744.00,100.56
3743.00,100.56
3742.00,100.54
3741.00,100.53
3740.00,100.53
3739.00,100.52
3738.00,100.50
3737.00,100.49
3736.00,100.50
3735.00,100.51
3734.00,100.51
3733.00,100.50
3732.00,100.49
3731.00,100.49
3730.00,100.48
3729.00,100.47
3728.00,100.47
3727.00,100.46
3726.00,100.47
3725.00,100.46
3724.00,100.46
3723.00,100.45
3722.00,100.44
3721.00,100.44
3720.00,100.43
3719.00,100.42
3718.00,100.42
3717.00,100.41
3716.00,100.41
3715.00,100.40
3714.00,100.38
3713.00,100.37
3712.00,100.35
3711.00,100.34
3710.00,100.33
3709.00,100.32
3708.00,100.31
3707.00,100.31
3706.00,100.30
3705.00,100.29
3704.00,100.29
3703.00,100.28
3702.00,100.28
3701.00,100.28
3700.00,100.27
3699.00,100.25
3698.00,100.23
3697.00,100.21
3696.00,100.19
3695.00,100.17
3694.00,100.15
3693.00,100.14
3692.00,100.14
3691.00,100.12
3690.00,100.10
3689.00,100.06
3688.00,100.03
3687.00,100.00
3686.00,99.96
3685.00,99.93
3684.00,99.91
3683.00,99.89
3682.00,99.87
3681.00,99.84
3680.00,99.82
3679.00,99.80
3678.00,99.76
3677.00,99.71
3676.00,99.66
3675.00,99.63
3674.00,99.60
3673.00,99.55
3672.00,99.50
3671.00,99.43
3670.00,99.38
3669.00,99.33
3668.00,99.28
3667.00,99.22
3666.00,99.17
3665.00,99.12
3664.00,99.07
3663.00,99.01
3662.00,98.95
3661.00,98.89
3660.00,98.82
3659.00,98.75
3658.00,98.67
3657.00,98.60
3656.00,98.53
3655.00,98.47
3654.00,98.41
3653.00,98.35
3652.00,98.27
3651.00,98.17
3650.00,98.07
3649.00,97.96
3648.00,97.85
3647.00,97.76
3646.00,97.67
3645.00,97.58
3644.00,97.50
3643.00,97.42
3642.00,97.33
3641.00,97.24
3640.00,97.15
3639.00,97.05
3638.00,96.95
3637.00,96.86
3636.00,96.76
3635.00,96.66
3634.00,96.57
3633.00,96.48
3632.00,96.39
3631.00,96.28
3630.00,96.14
3629.00,95.99
3628.00,95.87
3627.00,95.75
3626.00,95.63
3625.00,95.53
3624.00,95.43
3623.00,95.34
3622.00,95.24
3621.00,95.13
3620.00,95.00
3619.00,94.87
3618.00,94.74
3617.00,94.61
3616.00,94.48
3615.00,94.35
3614.00,94.23
3613.00,94.11
3612.00,93.99
3611.00,93.86
3610.00,93.72
3609.00,93.57
3608.00,93.43
3607.00,93.29
3606.00,93.16
3605.00,93.03
3604.00,92.90
3603.00,92.76
3602.00,92.62
3601.00,92.46
3600.00,92.31
3599.00,92.17
3598.00,92.03
3597.00,91.87
3596.00,91.72
3595.00,91.56
3594.00,91.41
3593.00,91.27
3592.00,91.14
3591.00,91.00
3590.00,90.85
3589.00,90.67
3588.00,90.48
3587.00,90.29
3586.00,90.12
3585.00,89.95
3584.00,89.79
3583.00,89.64
3582.00,89.48
3581.00,89.33
3580.00,89.17
3579.00,89.00
3578.00,88.83
3577.00,88.65
3576.00,88.47
3575.00,88.30
3574.00,88.13
3573.00,87.96
3572.00,87.81
3571.00,87.65
3570.00,87.49
3569.00,87.30
3568.00,87.08
3567.00,86.86
3566.00,86.65
3565.00,86.46
3564.00,86.29
3563.00,86.11
3562.00,85.93
3561.00,85.75
3560.00,85.57
3559.00,85.39
3558.00,85.21
3557.00,85.03
3556.00,84.85
3555.00,84.66
3554.00,84.47
3553.00,84.27
3552.00,84.08
3551.00,83.89
3550.00,83.72
3549.00,83.54
3548.00,83.34
3547.00,83.14
3546.00,82.93
3545.00,82.73
3544.00,82.53
3543.00,82.35
3542.00,82.17
3541.00,81.99
3540.00,81.80
3539.00,81.61
3538.00,81.42
3537.00,81.22
3536.00,81.03
3535.00,80.83
3534.00,80.65
3533.00,80.45
3532.00,80.26
3531.00,80.07
3530.00,79.88
3529.00,79.69
3528.00,79.49
3527.00,79.30
3526.00,79.10
3525.00,78.90
3524.00,78.70
3523.00,78.50
3522.00,78.30
3521.00,78.11
3520.00,77.92
3519.00,77.73
3518.00,77.54
3517.00,77.35
3516.00,77.16
3515.00,76.96
3514.00,76.77
3513.00,76.59
3512.00,76.40
3511.00,76.22
3510.00,76.02
3509.00,75.83
3508.00,75.65
3507.00,75.46
3506.00,75.27
3505.00,75.08
3504.00,74.88
3503.00,74.68
3502.00,74.49
3501.00,74.30
3500.00,74.12
3499.00,73.93
3498.00,73.74
3497.00,73.55
3496.00,73.36
3495.00,73.18
3494.00,73.00
3493.00,72.83
3492.00,72.65
3491.00,72.47
3490.00,72.28
3489.00,72.09
3488.00,71.90
3487.00,71.71
3486.00,71.54
3485.00,71.36
3484.00,71.18
3483.00,71.00
3482.00,70.81
3481.00,70.62
3480.00,70.43
3479.00,70.25
3478.00,70.07
3477.00,69.89
3476.00,69.71
3475.00,69.54
3474.00,69.36
3473.00,69.18
3472.00,69.00
3471.00,68.82
3470.00,68.65
3469.00,68.48
3468.00,68.30
3467.00,68.13
3466.00,67.96
3465.00,67.79
3464.00,67.61
3463.00,67.43
3462.00,67.26
3461.00,67.08
3460.00,66.91
3459.00,66.75
3458.00,66.59
3457.00,66.43
3456.00,66.26
3455.00,66.09
3454.00,65.93
3453.00,65.76
3452.00,65.60
3451.00,65.44
3450.00,65.27
3449.00,65.10
3448.00,64.93
3447.00,64.76
3446.00,64.60
3445.00,64.43
3444.00,64.27
3443.00,64.11
3442.00,63.95
3441.00,63.79
3440.00,63.63
3439.00,63.47
3438.00,63.30
3437.00,63.14
3436.00,62.98
3435.00,62.83
3434.00,62.68
3433.00,62.52
3432.00,62.37
3431.00,62.22
3430.00,62.07
3429.00,61.92
3428.00,61.77
3427.00,61.63
3426.00,61.49
3425.00,61.35
3424.00,61.20
3423.00,61.06
3422.00,60.91
3421.00,60.76
3420.00,60.61
3419.00,60.47
3418.00,60.33
3417.00,60.19
3416.00,60.05
3415.00,59.91
3414.00,59.76
3413.00,59.62
3412.00,59.48
3411.00,59.35
3410.00,59.21
3409.00,59.08
3408.00,58.95
3407.00,58.82
3406.00,58.69
3405.00,58.57
3404.00,58.44
3403.00,58.30
3402.00,58.17
3401.00,58.04
3400.00,57.91
3399.00,57.79
3398.00,57.67
3397.00,57.56
3396.00,57.44
3395.00,57.32
3394.00,57.20
3393.00,57.07
3392.00,56.96
3391.00,56.85
3390.00,56.74
3389.00,56.64
3388.00,56.54
3387.00,56.43
3386.00,56.32
3385.00,56.21
3384.00,56.10
3383.00,55.99
3382.00,55.89
3381.00,55.79
3380.00,55.69
3379.00,55.59
3378.00,55.49
3377.00,55.39
3376.00,55.30
3375.00,55.20
3374.00,55.11
3373.00,55.01
3372.00,54.92
3371.00,54.82
3370.00,54.73
3369.00,54.64
3368.00,54.56
3367.00,54.48
3366.00,54.40
3365.00,54.33
3364.00,54.25
3363.00,54.17
3362.00,54.10
3361.00,54.03
3360.00,53.96
3359.00,53.89
3358.00,53.82
3357.00,53.75
3356.00,53.67
3355.00,53.60
3354.00,53.52
3353.00,53.45
3352.00,53.38
3351.00,53.32
3350.00,53.26
3349.00,53.21
3348.00,53.15
3347.00,53.09
3346.00,53.03
3345.00,52.96
3344.00,52.91
3343.00,52.85
3342.00,52.80
3341.00,52.75
3340.00,52.70
3339.00,52.65
3338.00,52.60
3337.00,52.55
3336.00,52.51
3335.00,52.47
3334.00,52.43
3333.00,52.38
3332.00,52.34
3331.00,52.29
3330.00,52.25
3329.00,52.20
3328.00,52.16
3327.00,52.11
3326.00,52.08
3325.00,52.04
3324.00,52.01
3323.00,51.98
3322.00,51.95
3321.00,51.92
3320.00,51.88
3319.00,51.85
3318.00,51.82
3317.00,51.78
3316.00,51.75
3315.00,51.72
3314.00,51.69
3313.00,51.65
3312.00,51.62
3311.00,51.60
3310.00,51.57
3309.00,51.54
3308.00,51.51
3307.00,51.48
3306.00,51.46
3305.00,51.44
3304.00,51.42
3303.00,51.41
3302.00,51.39
3301.00,51.37
3300.00,51.35
3299.00,51.33
3298.00,51.31
3297.00,51.29
3296.00,51.27
3295.00,51.26
3294.00,51.24
3293.00,51.23
3292.00,51.21
3291.00,51.21
3290.00,51.21
3289.00,51.20
3288.00,51.19
3287.00,51.18
3286.00,51.17
3285.00,51.17
3284.00,51.16
3283.00,51.16
3282.00,51.15
3281.00,51.15
3280.00,51.14
3279.00,51.14
3278.00,51.13
3277.00,51.13
3276.00,51.12
3275.00,51.12
3274.00,51.12
3273.00,51.12
3272.00,51.13
3271.00,51.13
3270.00,51.14
3269.00,51.16
3268.00,51.17
3267.00,51.19
3266.00,51.20
3265.00,51.21
3264.00,51.23
3263.00,51.24
3262.00,51.26
3261.00,51.28
3260.00,51.30
3259.00,51.31
3258.00,51.33
3257.00,51.35
3256.00,51.38
3255.00,51.40
3254.00,51.43
3253.00,51.45
3252.00,51.48
3251.00,51.51
3250.00,51.55
3249.00,51.58
3248.00,51.62
3247.00,51.65
3246.00,51.69
3245.00,51.73
3244.00,51.78
3243.00,51.82
3242.00,51.87
3241.00,51.92
3240.00,51.97
3239.00,52.02
3238.00,52.07
3237.00,52.12
3236.00,52.17
3235.00,52.23
3234.00,52.29
3233.00,52.35
3232.00,52.41
3231.00,52.47
3230.00,52.54
3229.00,52.60
3228.00,52.67
3227.00,52.75
3226.00,52.82
3225.00,52.90
3224.00,52.97
3223.00,53.05
3222.00,53.12
3221.00,53.20
3220.00,53.28
3219.00,53.36
3218.00,53.45
3217.00,53.54
3216.00,53.63
3215.00,53.72
3214.00,53.81
3213.00,53.91
3212.00,54.00
3211.00,54.10
3210.00,54.20
3209.00,54.30
3208.00,54.40
3207.00,54.51
3206.00,54.61
3205.00,54.72
3204.00,54.83
3203.00,54.94
3202.00,55.05
3201.00,55.16
3200.00,55.28
3199.00,55.40
3198.00,55.52
3197.00,55.64
3196.00,55.76
3195.00,55.88
3194.00,56.01
3193.00,56.14
3192.00,56.27
3191.00,56.40
3190.00,56.53
3189.00,56.66
3188.00,56.79
3187.00,56.93
3186.00,57.07
3185.00,57.21
3184.00,57.35
3183.00,57.49
3182.00,57.63
3181.00,57.77
3180.00,57.92
3179.00,58.07
3178.00,58.21
3177.00,58.36
3176.00,58.51
3175.00,58.67
3174.00,58.82
3173.00,58.98
3172.00,59.15
3171.00,59.31
3170.00,59.47
3169.00,59.63
3168.00,59.79
3167.00,59.95
3166.00,60.11
3165.00,60.28
3164.00,60.44
3163.00,60.61
3162.00,60.77
3161.00,60.94
3160.00,61.11
3159.00,61.29
3158.00,61.46
3157.00,61.64
3156.00,61.81
3155.00,61.98
3154.00,62.16
3153.00,62.33
3152.00,62.51
3151.00,62.69
3150.00,62.88
3149.00,63.06
3148.00,63.25
3147.00,63.43
3146.00,63.61
3145.00,63.80
3144.00,63.98
3143.00,64.16
3142.00,64.35
3141.00,64.53
3140.00,64.72
3139.00,64.91
3138.00,65.10
3137.00,65.29
3136.00,65.48
3135.00,65.67
3134.00,65.86
3133.00,66.05
3132.00,66.24
3131.00,66.43
3130.00,66.63
3129.00,66.82
3128.00,67.02
3127.00,67.21
3126.00,67.40
3125.00,67.59
3124.00,67.78
3123.00,67.97
3122.00,68.16
3121.00,68.35
3120.00,68.55
3119.00,68.74
3118.00,68.94
3117.00,69.14
3116.00,69.33
3115.00,69.53
3114.00,69.73
3113.00,69.93
3112.00,70.13
3111.00,70.32
3110.00,70.52
3109.00,70.71
3108.00,70.90
3107.00,71.10
3106.00,71.30
3105.00,71.50
3104.00,71.69
3103.00,71.88
3102.00,72.07
3101.00,72.27
3100.00,72.46
3099.00,72.66
3098.00,72.86
3097.00,73.05
3096.00,73.25
3095.00,73.45
3094.00,73.64
3093.00,73.83
3092.00,74.02
3091.00,74.21
3090.00,74.39
3089.00,74.58
3088.00,74.77
3087.00,74.96
3086.00,75.14
3085.00,75.33
3084.00,75.52
3083.00,75.71
3082.00,75.89
3081.00,76.08
3080.00,76.27
3079.00,76.45
3078.00,76.65
3077.00,76.84
3076.00,77.03
3075.00,77.21
3074.00,77.39
3073.00,77.56
3072.00,77.74
3071.00,77.91
3070.00,78.09
3069.00,78.28
3068.00,78.46
3067.00,78.65
3066.00,78.83
3065.00,79.00
3064.00,79.18
3063.00,79.35
3062.00,79.52
3061.00,79.69
3060.00,79.86
3059.00,80.03
3058.00,80.20
3057.00,80.37
3056.00,80.54
3055.00,80.70
3054.00,80.87
3053.00,81.03
3052.00,81.20
3051.00,81.37
3050.00,81.53
3049.00,81.70
3048.00,81.86
3047.00,82.01
3046.00,82.17
3045.00,82.32
3044.00,82.48
3043.00,82.64
3042.00,82.79
3041.00,82.94
3040.00,83.10
3039.00,83.24
3038.00,83.39
3037.00,83.54
3036.00,83.68
3035.00,83.82
3034.00,83.96
3033.00,84.10
3032.00,84.25
3031.00,84.39
3030.00,84.53
3029.00,84.67
3028.00,84.80
3027.00,84.93
3026.00,85.06
3025.00,85.18
3024.00,85.31
3023.00,85.43
3022.00,85.55
3021.00,85.67
3020.00,85.78
3019.00,85.90
3018.00,86.01
3017.00,86.12
3016.00,86.22
3015.00,86.32
3014.00,86.41
3013.00,86.50
3012.00,86.59
3011.00,86.67
3010.00,86.76
3009.00,86.84
3008.00,86.92
3007.00,87.00
3006.00,87.07
3005.00,87.13
3004.00,87.18
3003.00,87.23
3002.00,87.28
3001.00,87.32
3000.00,87.36
2999.00,87.39
2998.00,87.41
2997.00,87.43
2996.00,87.44
2995.00,87.44
2994.00,87.44
2993.00,87.43
2992.00,87.42
2991.00,87.40
2990.00,87.37
2989.00,87.34
2988.00,87.30
2987.00,87.26
2986.00,87.21
2985.00,87.17
2984.00,87.11
2983.00,87.06
2982.00,87.00
2981.00,86.93
2980.00,86.87
2979.00,86.80
2978.00,86.73
2977.00,86.66
2976.00,86.59
2975.00,86.52
2974.00,86.45
2973.00,86.38
2972.00,86.31
2971.00,86.23
2970.00,86.14
2969.00,86.05
2968.00,85.96
2967.00,85.86
2966.00,85.76
2965.00,85.65
2964.00,85.52
2963.00,85.38
2962.00,85.23
2961.00,85.08
2960.00,84.91
2959.00,84.75
2958.00,84.58
2957.00,84.40
2956.00,84.21
2955.00,84.02
2954.00,83.83
2953.00,83.63
2952.00,83.44
2951.00,83.25
2950.00,83.06
2949.00,82.88
2948.00,82.69
2947.00,82.51
2946.00,82.34
2945.00,82.17
2944.00,82.01
2943.00,81.86
2942.00,81.71
2941.00,81.57
2940.00,81.45
2939.00,81.35
2938.00,81.26
2937.00,81.19
2936.00,81.13
2935.00,81.08
2934.00,81.05
2933.00,81.03
2932.00,81.03
2931.00,81.04
2930.00,81.06
2929.00,81.09
2928.00,81.13
2927.00,81.19
2926.00,81.25
2925.00,81.32
2924.00,81.40
2923.00,81.48
2922.00,81.56
2921.00,81.65
2920.00,81.74
2919.00,81.83
2918.00,81.93
2917.00,82.04
2916.00,82.15
2915.00,82.27
2914.00,82.40
2913.00,82.52
2912.00,82.64
2911.00,82.74
2910.00,82.83
2909.00,82.91
2908.00,82.98
2907.00,83.04
2906.00,83.09
2905.00,83.14
2904.00,83.18
2903.00,83.21
2902.00,83.24
2901.00,83.25
2900.00,83.27
2899.00,83.28
2898.00,83.28
2897.00,83.29
2896.00,83.30
2895.00,83.30
2894.00,83.31
2893.00,83.31
2892.00,83.32
2891.00,83.33
2890.00,83.35
2889.00,83.37
2888.00,83.40
2887.00,83.43
2886.00,83.47
2885.00,83.52
2884.00,83.59
2883.00,83.66
2882.00,83.74
2881.00,83.84
2880.00,83.95
2879.00,84.07
2878.00,84.19
2877.00,84.32
2876.00,84.45
2875.00,84.59
2874.00,84.73
2873.00,84.89
2872.00,85.04
2871.00,85.19
2870.00,85.34
2869.00,85.49
2868.00,85.64
2867.00,85.79
2866.00,85.94
2865.00,86.07
2864.00,86.20
2863.00,86.33
2862.00,86.44
2861.00,86.56
2860.00,86.67
2859.00,86.78
2858.00,86.88
2857.00,86.98
2856.00,87.08
2855.00,87.18
2854.00,87.27
2853.00,87.36
2852.00,87.45
2851.00,87.54
2850.00,87.65
2849.00,87.78
2848.00,87.92
2847.00,88.08
2846.00,88.24
2845.00,88.40
2844.00,88.55
2843.00,88.69
2842.00,88.82
2841.00,88.95
2840.00,89.06
2839.00,89.18
2838.00,89.28
2837.00,89.39
2836.00,89.50
2835.00,89.60
2834.00,89.70
2833.00,89.80
2832.00,89.90
2831.00,89.99
2830.00,90.08
2829.00,90.17
2828.00,90.26
2827.00,90.35
2826.00,90.44
2825.00,90.52
2824.00,90.60
2823.00,90.68
2822.00,90.76
2821.00,90.84
2820.00,90.92
2819.00,91.00
2818.00,91.07
2817.00,91.15
2816.00,91.22
2815.00,91.29
2814.00,91.37
2813.00,91.44
2812.00,91.51
2811.00,91.58
2810.00,91.65
2809.00,91.71
2808.00,91.77
2807.00,91.83
2806.00,91.89
2805.00,91.95
2804.00,92.01
2803.00,92.07
2802.00,92.12
2801.00,92.18
2800.00,92.23
2799.00,92.29
2798.00,92.34
2797.00,92.40
2796.00,92.45
2795.00,92.50
2794.00,92.55
2793.00,92.60
2792.00,92.65
2791.00,92.70
2790.00,92.74
2789.00,92.79
2788.00,92.84
2787.00,92.88
2786.00,92.93
2785.00,92.98
2784.00,93.03
2783.00,93.07
2782.00,93.12
2781.00,93.16
2780.00,93.20
2779.00,93.24
2778.00,93.28
2777.00,93.31
2776.00,93.35
2775.00,93.38
2774.00,93.42
2773.00,93.45
2772.00,93.49
2771.00,93.52
2770.00,93.56
2769.00,93.59
2768.00,93.63
2767.00,93.66
2766.00,93.70
2765.00,93.73
2764.00,93.76
2763.00,93.79
2762.00,93.82
2761.00,93.85
2760.00,93.88
2759.00,93.90
2758.00,93.93
2757.00,93.96
2756.00,93.99
2755.00,94.02
2754.00,94.04
2753.00,94.06
2752.00,94.09
2751.00,94.11
2750.00,94.14
2749.00,94.16
2748.00,94.18
2747.00,94.20
2746.00,94.22
2745.00,94.25
2744.00,94.27
2743.00,94.30
2742.00,94.32
2741.00,94.34
2740.00,94.36
2739.00,94.37
2738.00,94.39
2737.00,94.41
2736.00,94.42
2735.00,94.44
2734.00,94.46
2733.00,94.48
2732.00,94.50
2731.00,94.52
2730.00,94.54
2729.00,94.56
2728.00,94.58
2727.00,94.60
2726.00,94.62
2725.00,94.64
2724.00,94.66
2723.00,94.68
2722.00,94.70
2721.00,94.73
2720.00,94.75
2719.00,94.77
2718.00,94.78
2717.00,94.80
2716.00,94.82
2715.00,94.84
2714.00,94.86
2713.00,94.89
2712.00,94.92
2711.00,94.94
2710.00,94.97
2709.00,94.99
2708.00,95.01
2707.00,95.03
2706.00,95.05
2705.00,95.07
2704.00,95.10
2703.00,95.13
2702.00,95.15
2701.00,95.18
2700.00,95.19
2699.00,95.21
2698.00,95.23
2697.00,95.25
2696.00,95.28
2695.00,95.31
2694.00,95.34
2693.00,95.36
2692.00,95.39
2691.00,95.41
2690.00,95.43
2689.00,95.46
2688.00,95.49
2687.00,95.52
2686.00,95.54
2685.00,95.57
2684.00,95.60
2683.00,95.63
2682.00,95.65
2681.00,95.68
2680.00,95.71
2679.00,95.74
2678.00,95.77
2677.00,95.79
2676.00,95.82
2675.00,95.86
2674.00,95.89
2673.00,95.93
2672.00,95.96
2671.00,95.99
2670.00,96.02
2669.00,96.05
2668.00,96.08
2667.00,96.11
2666.00,96.14
2665.00,96.17
2664.00,96.20
2663.00,96.23
2662.00,96.26
2661.00,96.29
2660.00,96.32
2659.00,96.35
2658.00,96.38
2657.00,96.42
2656.00,96.45
2655.00,96.47
2654.00,96.50
2653.00,96.53
2652.00,96.57
2651.00,96.60
2650.00,96.63
2649.00,96.66
2648.00,96.69
2647.00,96.73
2646.00,96.75
2645.00,96.78
2644.00,96.81
2643.00,96.84
2642.00,96.88
2641.00,96.91
2640.00,96.93
2639.00,96.96
2638.00,96.98
2637.00,97.00
2636.00,97.03
2635.00,97.06
2634.00,97.09
2633.00,97.11
2632.00,97.14
2631.00,97.16
2630.00,97.19
2629.00,97.22
2628.00,97.24
2627.00,97.26
2626.00,97.28
2625.00,97.31
2624.00,97.33
2623.00,97.36
2622.00,97.39
2621.00,97.41
2620.00,97.43
2619.00,97.45
2618.00,97.47
2617.00,97.49
2616.00,97.51
2615.00,97.54
2614.00,97.56
2613.00,97.58
2612.00,97.61
2611.00,97.63
2610.00,97.66
2609.00,97.68
2608.00,97.70
2607.00,97.71
2606.00,97.73
2605.00,97.75
2604.00,97.76
2603.00,97.79
2602.00,97.81
2601.00,97.83
2600.00,97.85
2599.00,97.86
2598.00,97.88
2597.00,97.89
2596.00,97.90
2595.00,97.91
2594.00,97.93
2593.00,97.94
2592.00,97.95
2591.00,97.97
2590.00,97.99
2589.00,98.01
2588.00,98.03
2587.00,98.04
2586.00,98.05
2585.00,98.06
2584.00,98.07
2583.00,98.08
2582.00,98.10
2581.00,98.12
2580.00,98.14
2579.00,98.15
2578.00,98.16
2577.00,98.16
2576.00,98.17
2575.00,98.18
2574.00,98.20
2573.00,98.22
2572.00,98.23
2571.00,98.25
2570.00,98.26
2569.00,98.27
2568.00,98.28
2567.00,98.29
2566.00,98.30
2565.00,98.31
2564.00,98.31
2563.00,98.32
2562.00,98.33
2561.00,98.34
2560.00,98.35
2559.00,98.36
2558.00,98.38
2557.00,98.39
2556.00,98.41
2555.00,98.42
2554.00,98.43
2553.00,98.43
2552.00,98.43
2551.00,98.44
2550.00,98.45
2549.00,98.46
2548.00,98.47
2547.00,98.48
2546.00,98.49
2545.00,98.50
2544.00,98.51
2543.00,98.52
2542.00,98.53
2541.00,98.54
2540.00,98.56
2539.00,98.57
2538.00,98.58
2537.00,98.59
2536.00,98.59
2535.00,98.60
2534.00,98.61
2533.00,98.61
2532.00,98.62
2531.00,98.63
2530.00,98.64
2529.00,98.65
2528.00,98.66
2527.00,98.67
2526.00,98.68
2525.00,98.69
2524.00,98.69
2523.00,98.70
2522.00,98.71
2521.00,98.71
2520.00,98.72
2519.00,98.73
2518.00,98.74
2517.00,98.75
2516.00,98.75
2515.00,98.76
2514.00,98.78
2513.00,98.79
2512.00,98.80
2511.00,98.81
2510.00,98.83
2509.00,98.84
2508.00,98.85
2507.00,98.86
2506.00,98.86
2505.00,98.87
2504.00,98.88
2503.00,98.89
2502.00,98.90
2501.00,98.92
2500.00,98.93
2499.00,98.94
2498.00,98.95
2497.00,98.96
2496.00,98.97
2495.00,98.98
2494.00,98.99
2493.00,99.00
2492.00,99.01
2491.00,99.01
2490.00,99.02
2489.00,99.03
2488.00,99.04
2487.00,99.05
2486.00,99.07
2485.00,99.08
2484.00,99.10
2483.00,99.10
2482.00,99.11
2481.00,99.12
2480.00,99.13
2479.00,99.15
2478.00,99.16
2477.00,99.18
2476.00,99.19
2475.00,99.20
2474.00,99.21
2473.00,99.23
2472.00,99.25
2471.00,99.27
2470.00,99.29
2469.00,99.30
2468.00,99.31
2467.00,99.32
2466.00,99.33
2465.00,99.35
2464.00,99.37
2463.00,99.39
2462.00,99.41
2461.00,99.42
2460.00,99.44
2459.00,99.45
2458.00,99.47
2457.00,99.48
2456.00,99.49
2455.00,99.50
2454.00,99.50
2453.00,99.51
2452.00,99.52
2451.00,99.53
2450.00,99.55
2449.00,99.57
2448.00,99.59
2447.00,99.61
2446.00,99.62
2445.00,99.63
2444.00,99.64
2443.00,99.65
2442.00,99.66
2441.00,99.68
2440.00,99.69
2439.00,99.70
2438.00,99.71
2437.00,99.72
2436.00,99.73
2435.00,99.74
2434.00,99.76
2433.00,99.77
2432.00,99.78
2431.00,99.79
2430.00,99.80
2429.00,99.81
2428.00,99.83
2427.00,99.85
2426.00,99.87
2425.00,99.88
2424.00,99.89
2423.00,99.90
2422.00,99.90
2421.00,99.90
2420.00,99.91
2419.00,99.92
2418.00,99.93
2417.00,99.93
2416.00,99.94
2415.00,99.95
2414.00,99.96
2413.00,99.97
2412.00,99.99
2411.00,100.00
2410.00,100.02
2409.00,100.02
2408.00,100.03
2407.00,100.03
2406.00,100.03
2405.00,100.04
2404.00,100.04
2403.00,100.05
2402.00,100.06
2401.00,100.07
2400.00,100.09
2399.00,100.10
2398.00,100.10
2397.00,100.10
2396.00,100.10
2395.00,100.11
2394.00,100.12
2393.00,100.13
2392.00,100.13
2391.00,100.13
2390.00,100.13
2389.00,100.13
2388.00,100.13
2387.00,100.14
2386.00,100.14
2385.00,100.15
2384.00,100.15
2383.00,100.15
2382.00,100.15
2381.00,100.15
2380.00,100.15
2379.00,100.16
2378.00,100.17
2377.00,100.18
2376.00,100.20
2375.00,100.21
2374.00,100.21
2373.00,100.21
2372.00,100.20
2371.00,100.19
2370.00,100.18
2369.00,100.17
2368.00,100.18
2367.00,100.20
2366.00,100.21
2365.00,100.21
2364.00,100.20
2363.00,100.20
2362.00,100.20
2361.00,100.21
2360.00,100.22
2359.00,100.22
2358.00,100.22
2357.00,100.21
2356.00,100.20
2355.00,100.21
2354.00,100.22
2353.00,100.22
2352.00,100.22
2351.00,100.22
2350.00,100.22
2349.00,100.22
2348.00,100.22
2347.00,100.22
2346.00,100.23
2345.00,100.24
2344.00,100.24
2343.00,100.24
2342.00,100.23
2341.00,100.23
2340.00,100.22
2339.00,100.23
2338.00,100.23
2337.00,100.24
2336.00,100.25
2335.00,100.25
2334.00,100.26
2333.00,100.25
2332.00,100.25
2331.00,100.24
2330.00,100.24
2329.00,100.24
2328.00,100.24
2327.00,100.25
2326.00,100.25
2325.00,100.25
2324.00,100.24
2323.00,100.24
2322.00,100.24
2321.00,100.24
2320.00,100.25
2319.00,100.27
2318.00,100.28
2317.00,100.28
2316.00,100.27
2315.00,100.26
2314.00,100.26
2313.00,100.25
2312.00,100.24
2311.00,100.23
2310.00,100.23
2309.00,100.22
2308.00,100.22
2307.00,100.22
2306.00,100.23
2305.00,100.24
2304.00,100.24
2303.00,100.24
2302.00,100.23
2301.00,100.23
2300.00,100.23
2299.00,100.23
2298.00,100.23
2297.00,100.23
2296.00,100.23
2295.00,100.23
2294.00,100.22
2293.00,100.22
2292.00,100.22
2291.00,100.22
2290.00,100.23
2289.00,100.22
2288.00,100.22
2287.00,100.22
2286.00,100.22
2285.00,100.22
2284.00,100.21
2283.00,100.20
2282.00,100.19
2281.00,100.19
2280.00,100.19
2279.00,100.20
2278.00,100.21
2277.00,100.21
2276.00,100.21
2275.00,100.21
2274.00,100.22
2273.00,100.21
2272.00,100.20
2271.00,100.20
2270.00,100.19
2269.00,100.18
2268.00,100.17
2267.00,100.16
2266.00,100.15
2265.00,100.14
2264.00,100.13
2263.00,100.13
2262.00,100.13
2261.00,100.13
2260.00,100.13
2259.00,100.13
2258.00,100.13
2257.00,100.13
2256.00,100.12
2255.00,100.12
2254.00,100.12
2253.00,100.11
2252.00,100.10
2251.00,100.10
2250.00,100.10
2249.00,100.09
2248.00,100.09
2247.00,100.09
2246.00,100.09
2245.00,100.09
2244.00,100.09
2243.00,100.08
2242.00,100.07
2241.00,100.05
2240.00,100.03
2239.00,100.02
2238.00,100.02
2237.00,100.01
2236.00,100.01
2235.00,100.02
2234.00,100.03
2233.00,100.04
2232.00,100.03
2231.00,100.03
2230.00,100.02
2229.00,100.01
2228.00,100.00
2227.00,100.00
2226.00,100.00
2225.00,100.01
2224.00,100.01
2223.00,100.01
2222.00,100.01
2221.00,100.00
2220.00,99.98
2219.00,99.96
2218.00,99.95
2217.00,99.94
2216.00,99.94
2215.00,99.94
2214.00,99.95
2213.00,99.96
2212.00,99.96
2211.00,99.96
2210.00,99.96
2209.00,99.94
2208.00,99.91
2207.00,99.89
2206.00,99.88
2205.00,99.88
2204.00,99.88
2203.00,99.87
2202.00,99.88
2201.00,99.89
2200.00,99.90
2199.00,99.91
2198.00,99.91
2197.00,99.89
2196.00,99.86
2195.00,99.84
2194.00,99.81
2193.00,99.79
2192.00,99.78
2191.00,99.79
2190.00,99.80
2189.00,99.82
2188.00,99.82
2187.00,99.81
2186.00,99.80
2185.00,99.79
2184.00,99.79
2183.00,99.79
2182.00,99.81
2181.00,99.82
2180.00,99.82
2179.00,99.82
2178.00,99.82
2177.00,99.82
2176.00,99.80
2175.00,99.78
2174.00,99.75
2173.00,99.72
2172.00,99.70
2171.00,99.69
2170.00,99.71
2169.00,99.71
2168.00,99.71
2167.00,99.70
2166.00,99.71
2165.00,99.72
2164.00,99.73
2163.00,99.74
2162.00,99.73
2161.00,99.71
2160.00,99.67
2159.00,99.66
2158.00,99.67
2157.00,99.67
2156.00,99.67
2155.00,99.67
2154.00,99.68
2153.00,99.67
2152.00,99.65
2151.00,99.66
2150.00,99.66
2149.00,99.66
2148.00,99.63
2147.00,99.61
2146.00,99.59
2145.00,99.58
2144.00,99.58
2143.00,99.58
2142.00,99.58
2141.00,99.58
2140.00,99.56
2139.00,99.55
2138.00,99.54
2137.00,99.54
2136.00,99.54
2135.00,99.55
2134.00,99.57
2133.00,99.57
2132.00,99.56
2131.00,99.57
2130.00,99.57
2129.00,99.58
2128.00,99.57
2127.00,99.57
2126.00,99.56
2125.00,99.56
2124.00,99.57
2123.00,99.59
2122.00,99.61
2121.00,99.61
2120.00,99.60
2119.00,99.59
2118.00,99.58
2117.00,99.57
2116.00,99.56
2115.00,99.55
2114.00,99.55
2113.00,99.54
2112.00,99.54
2111.00,99.55
2110.00,99.57
2109.00,99.59
2108.00,99.59
2107.00,99.59
2106.00,99.58
2105.00,99.58
2104.00,99.58
2103.00,99.58
2102.00,99.60
2101.00,99.61
2100.00,99.61
2099.00,99.61
2098.00,99.62
2097.00,99.62
2096.00,99.62
2095.00,99.63
2094.00,99.64
2093.00,99.65
2092.00,99.66
2091.00,99.68
2090.00,99.70
2089.00,99.70
2088.00,99.70
2087.00,99.70
2086.00,99.70
2085.00,99.72
2084.00,99.74
2083.00,99.76
2082.00,99.78
2081.00,99.78
2080.00,99.78
2079.00,99.78
2078.00,99.78
2077.00,99.78
2076.00,99.78
2075.00,99.80
2074.00,99.82
2073.00,99.83
2072.00,99.84
2071.00,99.84
2070.00,99.85
2069.00,99.84
2068.00,99.83
2067.00,99.83
2066.00,99.83
2065.00,99.85
2064.00,99.85
2063.00,99.85
2062.00,99.85
2061.00,99.86
2060.00,99.87
2059.00,99.90
2058.00,99.92
2057.00,99.93
2056.00,99.93
2055.00,99.93
2054.00,99.93
2053.00,99.93
2052.00,99.94
2051.00,99.97
2050.00,100.00
2049.00,100.03
2048.00,100.04
2047.00,100.06
2046.00,100.09
2045.00,100.10
2044.00,100.09
2043.00,100.08
2042.00,100.08
2041.00,100.08
2040.00,100.08
2039.00,100.09
2038.00,100.11
2037.00,100.13
2036.00,100.16
2035.00,100.19
2034.00,100.21
2033.00,100.22
2032.00,100.20
2031.00,100.20
2030.00,100.20
2029.00,100.19
2028.00,100.18
2027.00,100.20
2026.00,100.23
2025.00,100.26
2024.00,100.27
2023.00,100.29
2022.00,100.31
2021.00,100.30
2020.00,100.28
2019.00,100.26
2018.00,100.26
2017.00,100.27
2016.00,100.29
2015.00,100.31
2014.00,100.32
2013.00,100.32
2012.00,100.31
2011.00,100.33
2010.00,100.37
2009.00,100.38
2008.00,100.38
2007.00,100.38
2006.00,100.39
2005.00,100.38
2004.00,100.36
2003.00,100.35
2002.00,100.37
2001.00,100.40
2000.00,100.42
1999.00,100.43
1998.00,100.45
1997.00,100.47
1996.00,100.48
1995.00,100.49
1994.00,100.50
1993.00,100.48
1992.00,100.47
1991.00,100.47
1990.00,100.49
1989.00,100.51
1988.00,100.52
1987.00,100.53
1986.00,100.55
1985.00,100.56
1984.00,100.56
1983.00,100.57
1982.00,100.57
1981.00,100.57
1980.00,100.55
1979.00,100.55
1978.00,100.56
1977.00,100.57
1976.00,100.57
1975.00,100.58
1974.00,100.60
1973.00,100.59
1972.00,100.55
1971.00,100.52
1970.00,100.53
1969.00,100.55
1968.00,100.58
1967.00,100.60
1966.00,100.60
1965.00,100.58
1964.00,100.56
1963.00,100.55
1962.00,100.54
1961.00,100.54
1960.00,100.53
1959.00,100.55
1958.00,100.57
1957.00,100.58
1956.00,100.56
1955.00,100.56
1954.00,100.56
1953.00,100.57
1952.00,100.57
1951.00,100.58
1950.00,100.59
1949.00,100.58
1948.00,100.57
1947.00,100.56
1946.00,100.56
1945.00,100.56
1944.00,100.58
1943.00,100.61
1942.00,100.64
1941.00,100.64
1940.00,100.63
1939.00,100.62
1938.00,100.63
1937.00,100.63
1936.00,100.62
1935.00,100.61
1934.00,100.61
1933.00,100.61
1932.00,100.61
1931.00,100.62
1930.00,100.62
1929.00,100.61
1928.00,100.59
1927.00,100.59
1926.00,100.61
1925.00,100.62
1924.00,100.62
1923.00,100.62
1922.00,100.61
1921.00,100.60
1920.00,100.59
1919.00,100.60
1918.00,100.60
1917.00,100.60
1916.00,100.59
1915.00,100.59
1914.00,100.61
1913.00,100.61
1912.00,100.62
1911.00,100.63
1910.00,100.64
1909.00,100.64
1908.00,100.62
1907.00,100.62
1906.00,100.62
1905.00,100.61
1904.00,100.61
1903.00,100.61
1902.00,100.62
1901.00,100.62
1900.00,100.61
1899.00,100.61
1898.00,100.61
1897.00,100.61
1896.00,100.61
1895.00,100.62
1894.00,100.62
1893.00,100.61
1892.00,100.59
1891.00,100.59
1890.00,100.60
1889.00,100.60
1888.00,100.60
1887.00,100.60
1886.00,100.62
1885.00,100.63
1884.00,100.63
1883.00,100.63
1882.00,100.63
1881.00,100.62
1880.00,100.61
1879.00,100.61
1878.00,100.62
1877.00,100.62
1876.00,100.62
1875.00,100.62
1874.00,100.63
1873.00,100.63
1872.00,100.62
1871.00,100.62
1870.00,100.62
1869.00,100.62
1868.00,100.62
1867.00,100.61
1866.00,100.62
1865.00,100.62
1864.00,100.62
1863.00,100.62
1862.00,100.63
1861.00,100.63
1860.00,100.62
1859.00,100.62
1858.00,100.62
1857.00,100.62
1856.00,100.61
1855.00,100.61
1854.00,100.62
1853.00,100.62
1852.00,100.62
1851.00,100.62
1850.00,100.63
1849.00,100.62
1848.00,100.60
1847.00,100.57
1846.00,100.56
1845.00,100.55
1844.00,100.56
1843.00,100.57
1842.00,100.59
1841.00,100.61
1840.00,100.62
1839.00,100.63
1838.00,100.64
1837.00,100.64
1836.00,100.64
1835.00,100.63
1834.00,100.62
1833.00,100.61
1832.00,100.60
1831.00,100.60
1830.00,100.62
1829.00,100.61
1828.00,100.60
1827.00,100.59
1826.00,100.59
1825.00,100.60
1824.00,100.60
1823.00,100.62
1822.00,100.64
1821.00,100.65
1820.00,100.64
1819.00,100.62
1818.00,100.62
1817.00,100.62
1816.00,100.62
1815.00,100.62
1814.00,100.63
1813.00,100.63
1812.00,100.63
1811.00,100.63
1810.00,100.63
1809.00,100.63
1808.00,100.63
1807.00,100.63
1806.00,100.63
1805.00,100.63
1804.00,100.61
1803.00,100.61
1802.00,100.61
1801.00,100.61
1800.00,100.61
1799.00,100.62
1798.00,100.64
1797.00,100.65
1796.00,100.64
1795.00,100.61
1794.00,100.59
1793.00,100.57
1792.00,100.57
1791.00,100.57
1790.00,100.59
1789.00,100.61
1788.00,100.62
1787.00,100.61
1786.00,100.61
1785.00,100.60
1784.00,100.60
1783.00,100.61
1782.00,100.63
1781.00,100.64
1780.00,100.64
1779.00,100.63
1778.00,100.63
1777.00,100.62
1776.00,100.61
1775.00,100.60
1774.00,100.60
1773.00,100.60
1772.00,100.59
1771.00,100.57
1770.00,100.56
1769.00,100.57
1768.00,100.58
1767.00,100.59
1766.00,100.60
1765.00,100.60
1764.00,100.58
1763.00,100.57
1762.00,100.57
1761.00,100.57
1760.00,100.56
1759.00,100.56
1758.00,100.55
1757.00,100.53
1756.00,100.50
1755.00,100.48
1754.00,100.47
1753.00,100.45
1752.00,100.41
1751.00,100.39
1750.00,100.37
1749.00,100.36
1748.00,100.33
1747.00,100.30
1746.00,100.28
1745.00,100.25
1744.00,100.20
1743.00,100.15
1742.00,100.10
1741.00,100.05
1740.00,99.99
1739.00,99.95
1738.00,99.91
1737.00,99.87
1736.00,99.82
1735.00,99.79
1734.00,99.78
1733.00,99.76
1732.00,99.73
1731.00,99.71
1730.00,99.70
1729.00,99.68
1728.00,99.65
1727.00,99.62
1726.00,99.60
1725.00,99.57
1724.00,99.53
1723.00,99.49
1722.00,99.44
1721.00,99.38
1720.00,99.32
1719.00,99.29
1718.00,99.28
1717.00,99.23
1716.00,99.16
1715.00,99.09
1714.00,99.04
1713.00,99.00
1712.00,98.96
1711.00,98.91
1710.00,98.85
1709.00,98.78
1708.00,98.68
1707.00,98.59
1706.00,98.49
1705.00,98.37
1704.00,98.24
1703.00,98.11
1702.00,97.97
1701.00,97.79
1700.00,97.62
1699.00,97.55
1698.00,97.54
1697.00,97.48
1696.00,97.32
1695.00,97.12
1694.00,96.96
1693.00,96.84
1692.00,96.71
1691.00,96.56
1690.00,96.39
1689.00,96.20
1688.00,96.03
1687.00,95.88
1686.00,95.72
1685.00,95.47
1684.00,95.13
1683.00,94.82
1682.00,94.64
1681.00,94.50
1680.00,94.32
1679.00,94.11
1678.00,93.89
1677.00,93.63
1676.00,93.33
1675.00,93.03
1674.00,92.81
1673.00,92.64
1672.00,92.46
1671.00,92.24
1670.00,91.98
1669.00,91.71
1668.00,91.46
1667.00,91.28
1666.00,91.13
1665.00,90.97
1664.00,90.76
1663.00,90.52
1662.00,90.31
1661.00,90.12
1660.00,89.96
1659.00,89.80
1658.00,89.66
1657.00,89.51
1656.00,89.36
1655.00,89.23
1654.00,89.08
1653.00,88.87
1652.00,88.71
1651.00,88.66
1650.00,88.65
1649.00,88.64
1648.00,88.61
1647.00,88.54
1646.00,88.48
1645.00,88.46
1644.00,88.46
1643.00,88.49
1642.00,88.54
1641.00,88.59
1640.00,88.63
1639.00,88.68
1638.00,88.76
1637.00,88.85
1636.00,88.95
1635.00,89.06
1634.00,89.21
1633.00,89.39
1632.00,89.57
1631.00,89.75
1630.00,89.94
1629.00,90.16
1628.00,90.38
1627.00,90.60
1626.00,90.81
1625.00,91.04
1624.00,91.30
1623.00,91.58
1622.00,91.85
1621.00,92.10
1620.00,92.32
1619.00,92.56
1618.00,92.84
1617.00,93.17
1616.00,93.47
1615.00,93.72
1614.00,93.95
1613.00,94.17
1612.00,94.41
1611.00,94.65
1610.00,94.89
1609.00,95.13
1608.00,95.35
1607.00,95.57
1606.00,95.77
1605.00,95.98
1604.00,96.18
1603.00,96.37
1602.00,96.56
1601.00,96.74
1600.00,96.90
1599.00,97.06
1598.00,97.21
1597.00,97.36
1596.00,97.52
1595.00,97.66
1594.00,97.80
1593.00,97.94
1592.00,98.06
1591.00,98.18
1590.00,98.30
1589.00,98.41
1588.00,98.51
1587.00,98.61
1586.00,98.71
1585.00,98.81
1584.00,98.90
1583.00,99.00
1582.00,99.09
1581.00,99.17
1580.00,99.24
1579.00,99.32
1578.00,99.42
1577.00,99.53
1576.00,99.61
1575.00,99.65
1574.00,99.67
1573.00,99.70
1572.00,99.73
1571.00,99.78
1570.00,99.83
1569.00,99.89
1568.00,99.94
1567.00,99.99
1566.00,100.05
1565.00,100.10
1564.00,100.13
1563.00,100.14
1562.00,100.13
1561.00,100.11
1560.00,100.14
1559.00,100.17
1558.00,100.16
1557.00,100.19
1556.00,100.27
1555.00,100.34
1554.00,100.40
1553.00,100.42
1552.00,100.45
1551.00,100.48
1550.00,100.50
1549.00,100.51
1548.00,100.51
1547.00,100.51
1546.00,100.51
1545.00,100.52
1544.00,100.52
1543.00,100.53
1542.00,100.57
1541.00,100.63
1540.00,100.65
1539.00,100.63
1538.00,100.63
1537.00,100.63
1536.00,100.62
1535.00,100.62
1534.00,100.62
1533.00,100.62
1532.00,100.62
1531.00,100.64
1530.00,100.66
1529.00,100.66
1528.00,100.65
1527.00,100.64
1526.00,100.64
1525.00,100.62
1524.00,100.62
1523.00,100.64
1522.00,100.66
1521.00,100.64
1520.00,100.60
1519.00,100.60
1518.00,100.63
1517.00,100.64
1516.00,100.63
1515.00,100.62
1514.00,100.62
1513.00,100.61
1512.00,100.59
1511.00,100.57
1510.00,100.57
1509.00,100.56
1508.00,100.54
1507.00,100.46
1506.00,100.32
1505.00,100.27
1504.00,100.28
1503.00,100.29
1502.00,100.26
1501.00,100.19
1500.00,100.10
1499.00,100.03
1498.00,99.97
1497.00,99.87
1496.00,99.73
1495.00,99.59
1494.00,99.47
1493.00,99.32
1492.00,99.15
1491.00,98.98
1490.00,98.80
1489.00,98.59
1488.00,98.39
1487.00,98.20
1486.00,98.02
1485.00,97.83
1484.00,97.62
1483.00,97.40
1482.00,97.15
1481.00,96.86
1480.00,96.56
1479.00,96.26
1478.00,95.94
1477.00,95.58
1476.00,95.21
1475.00,94.85
1474.00,94.45
1473.00,93.96
1472.00,93.44
1471.00,93.00
1470.00,92.65
1469.00,92.30
1468.00,91.93
1467.00,91.52
1466.00,91.06
1465.00,90.55
1464.00,90.06
1463.00,89.67
1462.00,89.35
1461.00,89.05
1460.00,88.75
1459.00,88.44
1458.00,88.08
1457.00,87.66
1456.00,87.35
1455.00,87.21
1454.00,87.16
1453.00,87.10
1452.00,87.04
1451.00,87.00
1450.00,86.95
1449.00,86.90
1448.00,86.84
1447.00,86.81
1446.00,86.77
1445.00,86.73
1444.00,86.67
1443.00,86.60
1442.00,86.51
1441.00,86.40
1440.00,86.29
1439.00,86.16
1438.00,86.01
1437.00,85.81
1436.00,85.63
1435.00,85.53
1434.00,85.47
1433.00,85.39
1432.00,85.29
1431.00,85.17
1430.00,85.05
1429.00,84.93
1428.00,84.83
1427.00,84.76
1426.00,84.70
1425.00,84.61
1424.00,84.52
1423.00,84.45
1422.00,84.39
1421.00,84.32
1420.00,84.25
1419.00,84.21
1418.00,84.19
1417.00,84.19
1416.00,84.21
1415.00,84.26
1414.00,84.31
1413.00,84.35
1412.00,84.40
1411.00,84.47
1410.00,84.56
1409.00,84.65
1408.00,84.74
1407.00,84.87
1406.00,85.02
1405.00,85.17
1404.00,85.34
1403.00,85.54
1402.00,85.73
1401.00,85.92
1400.00,86.13
1399.00,86.35
1398.00,86.58
1397.00,86.79
1396.00,87.00
1395.00,87.22
1394.00,87.44
1393.00,87.64
1392.00,87.83
1391.00,88.00
1390.00,88.14
1389.00,88.26
1388.00,88.36
1387.00,88.45
1386.00,88.52
1385.00,88.57
1384.00,88.59
1383.00,88.60
1382.00,88.58
1381.00,88.53
1380.00,88.47
1379.00,88.40
1378.00,88.32
1377.00,88.24
1376.00,88.15
1375.00,88.06
1374.00,87.97
1373.00,87.87
1372.00,87.80
1371.00,87.74
1370.00,87.69
1369.00,87.63
1368.00,87.57
1367.00,87.52
1366.00,87.47
1365.00,87.41
1364.00,87.36
1363.00,87.30
1362.00,87.25
1361.00,87.21
1360.00,87.18
1359.00,87.15
1358.00,87.13
1357.00,87.08
1356.00,87.02
1355.00,86.96
1354.00,86.89
1353.00,86.82
1352.00,86.74
1351.00,86.66
1350.00,86.57
1349.00,86.47
1348.00,86.38
1347.00,86.30
1346.00,86.24
1345.00,86.20
1344.00,86.18
1343.00,86.20
1342.00,86.26
1341.00,86.35
1340.00,86.48
1339.00,86.63
1338.00,86.81
1337.00,87.00
1336.00,87.22
1335.00,87.46
1334.00,87.72
1333.00,87.98
1332.00,88.24
1331.00,88.51
1330.00,88.76
1329.00,89.01
1328.00,89.25
1327.00,89.49
1326.00,89.72
1325.00,89.94
1324.00,90.15
1323.00,90.36
1322.00,90.56
1321.00,90.75
1320.00,90.93
1319.00,91.12
1318.00,91.30
1317.00,91.48
1316.00,91.65
1315.00,91.84
1314.00,92.02
1313.00,92.21
1312.00,92.40
1311.00,92.59
1310.00,92.79
1309.00,92.97
1308.00,93.16
1307.00,93.35
1306.00,93.54
1305.00,93.73
1304.00,93.90
1303.00,94.07
1302.00,94.23
1301.00,94.38
1300.00,94.52
1299.00,94.66
1298.00,94.77
1297.00,94.87
1296.00,94.96
1295.00,95.04
1294.00,95.12
1293.00,95.18
1292.00,95.23
1291.00,95.26
1290.00,95.29
1289.00,95.30
1288.00,95.30
1287.00,95.29
1286.00,95.28
1285.00,95.26
1284.00,95.24
1283.00,95.21
1282.00,95.17
1281.00,95.13
1280.00,95.08
1279.00,95.02
1278.00,94.95
1277.00,94.86
1276.00,94.76
1275.00,94.64
1274.00,94.51
1273.00,94.35
1272.00,94.18
1271.00,94.00
1270.00,93.81
1269.00,93.60
1268.00,93.38
1267.00,93.17
1266.00,92.97
1265.00,92.78
1264.00,92.60
1263.00,92.46
1262.00,92.34
1261.00,92.25
1260.00,92.19
1259.00,92.15
1258.00,92.14
1257.00,92.14
1256.00,92.16
1255.00,92.19
1254.00,92.23
1253.00,92.27
1252.00,92.31
1251.00,92.37
1250.00,92.43
1249.00,92.50
1248.00,92.56
1247.00,92.63
1246.00,92.71
1245.00,92.78
1244.00,92.86
1243.00,92.95
1242.00,93.04
1241.00,93.14
1240.00,93.24
1239.00,93.35
1238.00,93.47
1237.00,93.60
1236.00,93.72
1235.00,93.86
1234.00,94.02
1233.00,94.18
1232.00,94.36
1231.00,94.55
1230.00,94.76
1229.00,94.98
1228.00,95.22
1227.00,95.48
1226.00,95.76
1225.00,96.05
1224.00,96.36
1223.00,96.68
1222.00,97.00
1221.00,97.31
1220.00,97.62
1219.00,97.93
1218.00,98.24
1217.00,98.54
1216.00,98.83
1215.00,99.10
1214.00,99.34
1213.00,99.57
1212.00,99.76
1211.00,99.93
1210.00,100.07
1209.00,100.17
1208.00,100.25
1207.00,100.29
1206.00,100.30
1205.00,100.29
1204.00,100.25
1203.00,100.21
1202.00,100.15
1201.00,100.07
1200.00,99.98
1199.00,99.89
1198.00,99.79
1197.00,99.69
1196.00,99.59
1195.00,99.50
1194.00,99.41
1193.00,99.33
1192.00,99.25
1191.00,99.18
1190.00,99.12
1189.00,99.06
1188.00,99.02
1187.00,99.01
1186.00,99.01
1185.00,99.03
1184.00,99.07
1183.00,99.13
1182.00,99.21
1181.00,99.30
1180.00,99.40
1179.00,99.50
1178.00,99.58
1177.00,99.65
1176.00,99.69
1175.00,99.69
1174.00,99.63
1173.00,99.51
1172.00,99.31
1171.00,99.04
1170.00,98.69
1169.00,98.24
1168.00,97.70
1167.00,97.08
1166.00,96.38
1165.00,95.61
1164.00,94.78
1163.00,93.90
1162.00,93.00
1161.00,92.06
1160.00,91.11
1159.00,90.18
1158.00,89.28
1157.00,88.42
1156.00,87.61
1155.00,86.85
1154.00,86.16
1153.00,85.54
1152.00,84.99
1151.00,84.55
1150.00,84.20
1149.00,83.93
1148.00,83.75
1147.00,83.66
1146.00,83.67
1145.00,83.74
1144.00,83.88
1143.00,84.07
1142.00,84.31
1141.00,84.55
1140.00,84.78
1139.00,85.01
1138.00,85.22
1137.00,85.40
1136.00,85.55
1135.00,85.68
1134.00,85.79
1133.00,85.87
1132.00,85.92
1131.00,85.95
1130.00,85.96
1129.00,85.94
1128.00,85.89
1127.00,85.82
1126.00,85.74
1125.00,85.60
1124.00,85.42
1123.00,85.20
1122.00,84.93
1121.00,84.59
1120.00,84.18
1119.00,83.70
1118.00,83.15
1117.00,82.50
1116.00,81.76
1115.00,80.94
1114.00,80.06
1113.00,79.10
1112.00,78.10
1111.00,77.08
1110.00,76.07
1109.00,75.06
1108.00,74.09
1107.00,73.19
1106.00,72.41
1105.00,71.74
1104.00,71.19
1103.00,70.80
1102.00,70.57
1101.00,70.45
1100.00,70.44
1099.00,70.53
1098.00,70.69
1097.00,70.83
1096.00,70.92
1095.00,70.91
1094.00,70.76
1093.00,70.42
1092.00,69.89
1091.00,69.19
1090.00,68.33
1089.00,67.32
1088.00,66.18
1087.00,64.99
1086.00,63.77
1085.00,62.54
1084.00,61.31
1083.00,60.15
1082.00,59.08
1081.00,58.09
1080.00,57.19
1079.00,56.43
1078.00,55.79
1077.00,55.25
1076.00,54.77
1075.00,54.36
1074.00,53.99
1073.00,53.60
1072.00,53.15
1071.00,52.66
1070.00,52.13
1069.00,51.52
1068.00,50.83
1067.00,50.09
1066.00,49.31
1065.00,48.47
1064.00,47.60
1063.00,46.74
1062.00,45.90
1061.00,45.06
1060.00,44.23
1059.00,43.45
1058.00,42.73
1057.00,42.04
1056.00,41.38
1055.00,40.81
1054.00,40.33
1053.00,39.93
1052.00,39.61
1051.00,39.44
1050.00,39.41
1049.00,39.45
1048.00,39.52
1047.00,39.66
1046.00,39.83
1045.00,39.98
1044.00,40.06
1043.00,40.12
1042.00,40.12
1041.00,40.04
1040.00,39.86
1039.00,39.62
1038.00,39.33
1037.00,38.97
1036.00,38.54
1035.00,38.10
1034.00,37.65
1033.00,37.19
1032.00,36.73
1031.00,36.32
1030.00,35.98
1029.00,35.70
1028.00,35.49
1027.00,35.41
1026.00,35.45
1025.00,35.57
1024.00,35.75
1023.00,36.01
1022.00,36.36
1021.00,36.73
1020.00,37.11
1019.00,37.52
1018.00,37.92
1017.00,38.29
1016.00,38.61
1015.00,38.95
1014.00,39.33
1013.00,39.75
1012.00,40.22
1011.00,40.82
1010.00,41.55
1009.00,42.42
1008.00,43.43
1007.00,44.60
1006.00,45.92
1005.00,47.34
1004.00,48.83
1003.00,50.37
1002.00,51.90
1001.00,53.35
1000.00,54.68
999.00,55.88
998.00,56.91
997.00,57.76
996.00,58.43
995.00,58.97
994.00,59.41
993.00,59.78
992.00,60.10
991.00,60.45
990.00,60.83
989.00,61.25
988.00,61.69
987.00,62.15
986.00,62.61
985.00,63.02
984.00,63.36
983.00,63.67
982.00,63.96
981.00,64.28
980.00,64.68
979.00,65.25
978.00,66.03
977.00,67.05
976.00,68.29
975.00,69.71
974.00,71.22
973.00,72.70
972.00,74.04
971.00,75.17
970.00,76.03
969.00,76.62
968.00,77.00
967.00,77.30
966.00,77.67
965.00,78.23
964.00,79.07
963.00,80.27
962.00,81.82
961.00,83.66
960.00,85.70
959.00,87.84
958.00,89.97
957.00,91.97
956.00,93.77
955.00,95.35
954.00,96.69
953.00,97.78
952.00,98.65
951.00,99.34
950.00,99.87
949.00,100.27
948.00,100.54
947.00,100.72
946.00,100.82
945.00,100.86
944.00,100.84
943.00,100.77
942.00,100.65
941.00,100.49
940.00,100.31
939.00,100.11
938.00,99.89
937.00,99.66
936.00,99.40
935.00,99.13
934.00,98.85
933.00,98.55
932.00,98.22
931.00,97.87
930.00,97.49
929.00,97.07
928.00,96.62
927.00,96.15
926.00,95.66
925.00,95.15
924.00,94.65
923.00,94.21
922.00,93.85
921.00,93.58
920.00,93.43
919.00,93.42
918.00,93.55
917.00,93.82
916.00,94.19
915.00,94.67
914.00,95.23
913.00,95.83
912.00,96.42
911.00,96.98
910.00,97.50
909.00,97.92
908.00,98.25
907.00,98.50
906.00,98.65
905.00,98.72
904.00,98.72
903.00,98.69
902.00,98.64
901.00,98.57
900.00,98.48
899.00,98.43
898.00,98.43
897.00,98.48
896.00,98.57
895.00,98.70
894.00,98.88
893.00,99.08
892.00,99.33
891.00,99.60
890.00,99.91
889.00,100.20
888.00,100.48
887.00,100.73
886.00,100.93
885.00,101.05
884.00,101.07
883.00,101.01
882.00,100.87
881.00,100.62
880.00,100.24
879.00,99.76
878.00,99.18
877.00,98.50
876.00,97.74
875.00,96.96
874.00,96.16
873.00,95.36
872.00,94.58
871.00,93.87
870.00,93.27
869.00,92.78
868.00,92.41
867.00,92.18
866.00,92.11
865.00,92.16
864.00,92.35
863.00,92.68
862.00,93.17
861.00,93.76
860.00,94.42
859.00,95.15
858.00,95.90
857.00,96.65
856.00,97.37
855.00,98.04
854.00,98.66
853.00,99.21
852.00,99.68
851.00,100.07
850.00,100.38
849.00,100.59
848.00,100.73
847.00,100.80
846.00,100.85
845.00,100.85
844.00,100.83
843.00,100.78
842.00,100.73
841.00,100.66
840.00,100.59
839.00,100.51
838.00,100.41
837.00,100.26
836.00,100.05
835.00,99.81
834.00,99.52
833.00,99.15
832.00,98.69
831.00,98.15
830.00,97.51
829.00,96.76
828.00,95.88
827.00,94.90
826.00,93.81
825.00,92.62
824.00,91.38
823.00,90.19
822.00,89.14
821.00,88.25
820.00,87.55
819.00,87.09
818.00,86.89
817.00,86.95
816.00,87.27
815.00,87.88
814.00,88.76
813.00,89.81
812.00,90.95
811.00,92.17
810.00,93.40
809.00,94.61
808.00,95.74
807.00,96.78
806.00,97.72
805.00,98.51
804.00,99.16
803.00,99.70
802.00,100.17
801.00,100.53
800.00,100.79
799.00,100.97
798.00,101.09
797.00,101.11
796.00,101.01
795.00,100.81
794.00,100.51
793.00,100.07
792.00,99.47
791.00,98.71
790.00,97.78
789.00,96.68
788.00,95.43
787.00,94.09
786.00,92.71
785.00,91.30
784.00,89.94
783.00,88.69
782.00,87.63
781.00,86.75
780.00,86.08
779.00,85.66
778.00,85.50
777.00,85.55
776.00,85.80
775.00,86.25
774.00,86.87
773.00,87.60
772.00,88.40
771.00,89.28
770.00,90.20
769.00,91.12
768.00,91.99
767.00,92.85
766.00,93.68
765.00,94.44
764.00,95.13
763.00,95.77
762.00,96.37
761.00,96.89
760.00,97.33
759.00,97.72
758.00,98.09
757.00,98.40
756.00,98.65
755.00,98.90
754.00,99.14
753.00,99.33
752.00,99.47
751.00,99.60
750.00,99.72
749.00,99.82
748.00,99.89
747.00,99.96
746.00,100.05
745.00,100.12
744.00,100.15
743.00,100.21
742.00,100.31
741.00,100.38
740.00,100.41
739.00,100.45
738.00,100.53
737.00,100.61
736.00,100.64
735.00,100.66
734.00,100.69
733.00,100.69
732.00,100.68
731.00,100.68
730.00,100.71
729.00,100.71
728.00,100.67
727.00,100.62
726.00,100.59
725.00,100.54
724.00,100.45
723.00,100.35
722.00,100.25
721.00,100.12
720.00,99.94
719.00,99.75
718.00,99.57
717.00,99.36
716.00,99.11
715.00,98.87
714.00,98.65
713.00,98.39
712.00,98.08
711.00,97.77
710.00,97.48
709.00,97.19
708.00,96.89
707.00,96.65
706.00,96.52
705.00,96.43
704.00,96.35
703.00,96.31
702.00,96.31
701.00,96.32
700.00,96.32
699.00,96.38
698.00,96.51
697.00,96.64
696.00,96.74
695.00,96.88
694.00,97.11
693.00,97.35
692.00,97.58
691.00,97.82
690.00,98.08
689.00,98.29
688.00,98.41
687.00,98.53
686.00,98.70
685.00,98.84
684.00,98.90
683.00,98.97
682.00,99.08
681.00,99.19
680.00,99.26
679.00,99.33
678.00,99.44
677.00,99.50
676.00,99.51
675.00,99.56
674.00,99.69
673.00,99.84
672.00,99.99
671.00,100.20
670.00,100.47
669.00,100.61
668.00,100.45
667.00,100.25
666.00,100.23
665.00,100.28
664.00,100.33
663.00,100.43
662.00,100.58
661.00,100.66
660.00,100.64
659.00,100.65
658.00,100.75
657.00,100.80
656.00,100.69
655.00,100.56
654.00,100.53
653.00,100.49
652.00,100.38
651.00,100.26
650.00,100.16
