Created as New Dataset,Sample 006 By iruser Date Tuesday, March 24 2026
cm-1,%T
4200.00,99.22
4199.00,99.22
4198.00,99.21
4197.00,99.20
4196.00,99.20
4195.00,99.20
4194.00,99.20
4193.00,99.21
4192.00,99.21
4191.00,99.22
4190.00,99.22
4189.00,99.22
4188.00,99.22
4187.00,99.22
4186.00,99.22
4185.00,99.22
4184.00,99.21
4183.00,99.21
4182.00,99.20
4181.00,99.19
4180.00,99.19
4179.00,99.19
4178.00,99.19
4177.00,99.20
4176.00,99.20
4175.00,99.21
4174.00,99.21
4173.00,99.20
4172.00,99.20
4171.00,99.20
4170.00,99.20
4169.00,99.20
4168.00,99.20
4167.00,99.20
4166.00,99.19
4165.00,99.19
4164.00,99.19
4163.00,99.20
4162.00,99.20
4161.00,99.19
4160.00,99.19
4159.00,99.19
4158.00,99.19
4157.00,99.20
4156.00,99.20
4155.00,99.20
4154.00,99.20
4153.00,99.20
4152.00,99.20
4151.00,99.19
4150.00,99.19
4149.00,99.19
4148.00,99.19
4147.00,99.19
4146.00,99.19
4145.00,99.19
4144.00,99.18
4143.00,99.18
4142.00,99.18
4141.00,99.18
4140.00,99.18
4139.00,99.18
4138.00,99.18
4137.00,99.18
4136.00,99.17
4135.00,99.18
4134.00,99.18
4133.00,99.18
4132.00,99.18
4131.00,99.18
4130.00,99.18
4129.00,99.18
4128.00,99.18
4127.00,99.17
4126.00,99.17
4125.00,99.17
4124.00,99.17
4123.00,99.16
4122.00,99.15
4121.00,99.15
4120.00,99.14
4119.00,99.14
4118.00,99.14
4117.00,99.14
4116.00,99.15
4115.00,99.15
4114.00,99.16
4113.00,99.16
4112.00,99.16
4111.00,99.16
4110.00,99.15
4109.00,99.15
4108.00,99.14
4107.00,99.13
4106.00,99.13
4105.00,99.12
4104.00,99.12
4103.00,99.12
4102.00,99.12
4101.00,99.13
4100.00,99.13
4099.00,99.13
4098.00,99.12
4097.00,99.11
4096.00,99.10
4095.00,99.09
4094.00,99.09
4093.00,99.09
4092.00,99.10
4091.00,99.10
4090.00,99.10
4089.00,99.11
4088.00,99.11
4087.00,99.12
4086.00,99.12
4085.00,99.11
4084.00,99.11
4083.00,99.11
4082.00,99.10
4081.00,99.10
4080.00,99.10
4079.00,99.10
4078.00,99.10
4077.00,99.10
4076.00,99.10
4075.00,99.09
4074.00,99.09
4073.00,99.08
4072.00,99.08
4071.00,99.08
4070.00,99.07
4069.00,99.07
4068.00,99.06
4067.00,99.06
4066.00,99.06
4065.00,99.06
4064.00,99.06
4063.00,99.06
4062.00,99.06
4061.00,99.05
4060.00,99.05
4059.00,99.05
4058.00,99.05
4057.00,99.04
4056.00,99.04
4055.00,99.04
4054.00,99.04
4053.00,99.04
4052.00,99.03
4051.00,99.02
4050.00,99.02
4049.00,99.01
4048.00,99.02
4047.00,99.02
4046.00,99.02
4045.00,99.02
4044.00,99.02
4043.00,99.01
4042.00,99.00
4041.00,99.00
4040.00,99.00
4039.00,99.00
4038.00,99.01
4037.00,99.02
4036.00,99.02
4035.00,99.02
4034.00,99.02
4033.00,99.01
4032.00,99.01
4031.00,99.01
4030.00,99.01
4029.00,99.00
4028.00,99.00
4027.00,98.99
4026.00,98.99
4025.00,98.99
4024.00,98.99
4023.00,98.99
4022.00,98.99
4021.00,99.00
4020.00,99.00
4019.00,99.00
4018.00,98.99
4017.00,98.99
4016.00,98.99
4015.00,98.99
4014.00,98.98
4013.00,98.98
4012.00,98.98
4011.00,98.98
4010.00,98.98
4009.00,98.98
4008.00,98.98
4007.00,98.98
4006.00,98.98
4005.00,98.98
4004.00,98.98
4003.00,98.98
4002.00,98.98
4001.00,98.99
4000.00,98.99
3999.00,98.99
3998.00,98.99
3997.00,98.99
3996.00,98.99
3995.00,98.99
3994.00,98.98
3993.00,98.98
3992.00,98.98
3991.00,98.98
3990.00,98.99
3989.00,98.99
3988.00,99.00
3987.00,99.00
3986.00,99.00
3985.00,99.00
3984.00,99.00
3983.00,99.00
3982.00,99.00
3981.00,99.01
3980.00,99.01
3979.00,99.01
3978.00,99.00
3977.00,99.00
3976.00,99.00
3975.00,99.01
3974.00,99.01
3973.00,99.02
3972.00,99.02
3971.00,99.02
3970.00,99.02
3969.00,99.02
3968.00,99.02
3967.00,99.02
3966.00,99.02
3965.00,99.02
3964.00,99.02
3963.00,99.03
3962.00,99.03
3961.00,99.04
3960.00,99.04
3959.00,99.04
3958.00,99.05
3957.00,99.05
3956.00,99.05
3955.00,99.05
3954.00,99.05
3953.00,99.05
3952.00,99.05
3951.00,99.05
3950.00,99.05
3949.00,99.05
3948.00,99.05
3947.00,99.05
3946.00,99.05
3945.00,99.06
3944.00,99.06
3943.00,99.06
3942.00,99.07
3941.00,99.07
3940.00,99.08
3939.00,99.08
3938.00,99.08
3937.00,99.08
3936.00,99.08
3935.00,99.08
3934.00,99.09
3933.00,99.09
3932.00,99.09
3931.00,99.09
3930.00,99.09
3929.00,99.09
3928.00,99.09
3927.00,99.09
3926.00,99.10
3925.00,99.10
3924.00,99.10
3923.00,99.10
3922.00,99.10
3921.00,99.10
3920.00,99.10
3919.00,99.11
3918.00,99.12
3917.00,99.12
3916.00,99.13
3915.00,99.13
3914.00,99.13
3913.00,99.13
3912.00,99.13
3911.00,99.14
3910.00,99.14
3909.00,99.14
3908.00,99.14
3907.00,99.13
3906.00,99.13
3905.00,99.14
3904.00,99.14
3903.00,99.15
3902.00,99.15
3901.00,99.15
3900.00,99.15
3899.00,99.15
3898.00,99.15
3897.00,99.15
3896.00,99.16
3895.00,99.16
3894.00,99.16
3893.00,99.16
3892.00,99.16
3891.00,99.16
3890.00,99.16
3889.00,99.17
3888.00,99.18
3887.00,99.19
3886.00,99.20
3885.00,99.19
3884.00,99.18
3883.00,99.17
3882.00,99.16
3881.00,99.16
3880.00,99.17
3879.00,99.17
3878.00,99.17
3877.00,99.17
3876.00,99.17
3875.00,99.17
3874.00,99.17
3873.00,99.17
3872.00,99.17
3871.00,99.17
3870.00,99.17
3869.00,99.17
3868.00,99.17
3867.00,99.17
3866.00,99.18
3865.00,99.19
3864.00,99.19
3863.00,99.19
3862.00,99.20
3861.00,99.20
3860.00,99.20
3859.00,99.20
3858.00,99.19
3857.00,99.18
3856.00,99.17
3855.00,99.17
3854.00,99.18
3853.00,99.19
3852.00,99.19
3851.00,99.19
3850.00,99.20
3849.00,99.20
3848.00,99.21
3847.00,99.21
3846.00,99.21
3845.00,99.21
3844.00,99.21
3843.00,99.20
3842.00,99.19
3841.00,99.18
3840.00,99.18
3839.00,99.18
3838.00,99.18
3837.00,99.18
3836.00,99.18
3835.00,99.18
3834.00,99.18
3833.00,99.19
3832.00,99.19
3831.00,99.20
3830.00,99.20
3829.00,99.20
3828.00,99.20
3827.00,99.20
3826.00,99.20
3825.00,99.19
3824.00,99.19
3823.00,99.19
3822.00,99.18
3821.00,99.18
3820.00,99.18
3819.00,99.18
3818.00,99.19
3817.00,99.20
3816.00,99.20
3815.00,99.21
3814.00,99.21
3813.00,99.21
3812.00,99.21
3811.00,99.21
3810.00,99.20
3809.00,99.20
3808.00,99.19
3807.00,99.19
3806.00,99.18
3805.00,99.18
3804.00,99.18
3803.00,99.18
3802.00,99.19
3801.00,99.19
3800.00,99.19
3799.00,99.20
3798.00,99.21
3797.00,99.22
3796.00,99.22
3795.00,99.22
3794.00,99.22
3793.00,99.22
3792.00,99.22
3791.00,99.22
3790.00,99.22
3789.00,99.21
3788.00,99.20
3787.00,99.20
3786.00,99.19
3785.00,99.19
3784.00,99.19
3783.00,99.19
3782.00,99.19
3781.00,99.19
3780.00,99.19
3779.00,99.20
3778.00,99.20
3777.00,99.20
3776.00,99.20
3775.00,99.20
3774.00,99.20
3773.00,99.20
3772.00,99.19
3771.00,99.19
3770.00,99.19
3769.00,99.18
3768.00,99.18
3767.00,99.18
3766.00,99.18
3765.00,99.17
3764.00,99.17
3763.00,99.18
3762.00,99.18
3761.00,99.18
3760.00,99.18
3759.00,99.17
3758.00,99.16
3757.00,99.15
3756.00,99.14
3755.00,99.14
3754.00,99.14
3753.00,99.14
3752.00,99.14
3751.00,99.14
3750.00,99.15
3749.00,99.15
3748.00,99.14
3747.00,99.13
3746.00,99.13
3745.00,99.12
3744.00,99.12
3743.00,99.13
3742.00,99.13
3741.00,99.13
3740.00,99.13
3739.00,99.13
3738.00,99.12
3737.00,99.12
3736.00,99.12
3735.00,99.11
3734.00,99.11
3733.00,99.11
3732.00,99.10
3731.00,99.10
3730.00,99.10
3729.00,99.10
3728.00,99.10
3727.00,99.10
3726.00,99.10
3725.00,99.09
3724.00,99.09
3723.00,99.09
3722.00,99.08
3721.00,99.07
3720.00,99.07
3719.00,99.06
3718.00,99.05
3717.00,99.05
3716.00,99.04
3715.00,99.03
3714.00,99.02
3713.00,99.00
3712.00,98.98
3711.00,98.97
3710.00,98.97
3709.00,98.97
3708.00,98.97
3707.00,98.97
3706.00,98.97
3705.00,98.96
3704.00,98.96
3703.00,98.95
3702.00,98.94
3701.00,98.92
3700.00,98.91
3699.00,98.89
3698.00,98.87
3697.00,98.86
3696.00,98.84
3695.00,98.82
3694.00,98.81
3693.00,98.79
3692.00,98.77
3691.00,98.75
3690.00,98.73
3689.00,98.71
3688.00,98.69
3687.00,98.67
3686.00,98.65
3685.00,98.63
3684.00,98.61
3683.00,98.59
3682.00,98.57
3681.00,98.55
3680.00,98.52
3679.00,98.49
3678.00,98.44
3677.00,98.39
3676.00,98.33
3675.00,98.28
3674.00,98.24
3673.00,98.21
3672.00,98.18
3671.00,98.14
3670.00,98.10
3669.00,98.06
3668.00,98.02
3667.00,97.98
3666.00,97.94
3665.00,97.89
3664.00,97.84
3663.00,97.78
3662.00,97.72
3661.00,97.66
3660.00,97.61
3659.00,97.56
3658.00,97.50
3657.00,97.43
3656.00,97.36
3655.00,97.29
3654.00,97.23
3653.00,97.16
3652.00,97.08
3651.00,96.99
3650.00,96.89
3649.00,96.79
3648.00,96.70
3647.00,96.63
3646.00,96.56
3645.00,96.49
3644.00,96.42
3643.00,96.35
3642.00,96.27
3641.00,96.18
3640.00,96.09
3639.00,95.99
3638.00,95.91
3637.00,95.82
3636.00,95.73
3635.00,95.64
3634.00,95.54
3633.00,95.44
3632.00,95.35
3631.00,95.25
3630.00,95.13
3629.00,95.00
3628.00,94.88
3627.00,94.77
3626.00,94.67
3625.00,94.58
3624.00,94.49
3623.00,94.39
3622.00,94.29
3621.00,94.17
3620.00,94.04
3619.00,93.91
3618.00,93.78
3617.00,93.67
3616.00,93.57
3615.00,93.46
3614.00,93.34
3613.00,93.22
3612.00,93.11
3611.00,92.99
3610.00,92.87
3609.00,92.73
3608.00,92.59
3607.00,92.45
3606.00,92.32
3605.00,92.19
3604.00,92.07
3603.00,91.94
3602.00,91.80
3601.00,91.65
3600.00,91.51
3599.00,91.37
3598.00,91.23
3597.00,91.09
3596.00,90.94
3595.00,90.79
3594.00,90.64
3593.00,90.50
3592.00,90.37
3591.00,90.24
3590.00,90.10
3589.00,89.94
3588.00,89.75
3587.00,89.56
3586.00,89.39
3585.00,89.23
3584.00,89.09
3583.00,88.94
3582.00,88.79
3581.00,88.64
3580.00,88.48
3579.00,88.31
3578.00,88.14
3577.00,87.97
3576.00,87.79
3575.00,87.62
3574.00,87.45
3573.00,87.29
3572.00,87.13
3571.00,86.98
3570.00,86.82
3569.00,86.64
3568.00,86.44
3567.00,86.23
3566.00,86.03
3565.00,85.85
3564.00,85.68
3563.00,85.52
3562.00,85.35
3561.00,85.17
3560.00,84.98
3559.00,84.80
3558.00,84.62
3557.00,84.44
3556.00,84.27
3555.00,84.09
3554.00,83.90
3553.00,83.70
3552.00,83.50
3551.00,83.32
3550.00,83.14
3549.00,82.96
3548.00,82.77
3547.00,82.58
3546.00,82.38
3545.00,82.18
3544.00,81.99
3543.00,81.80
3542.00,81.62
3541.00,81.44
3540.00,81.25
3539.00,81.06
3538.00,80.87
3537.00,80.67
3536.00,80.48
3535.00,80.29
3534.00,80.11
3533.00,79.92
3532.00,79.73
3531.00,79.54
3530.00,79.34
3529.00,79.15
3528.00,78.96
3527.00,78.77
3526.00,78.57
3525.00,78.38
3524.00,78.18
3523.00,77.99
3522.00,77.80
3521.00,77.60
3520.00,77.41
3519.00,77.22
3518.00,77.02
3517.00,76.83
3516.00,76.64
3515.00,76.45
3514.00,76.26
3513.00,76.07
3512.00,75.89
3511.00,75.70
3510.00,75.50
3509.00,75.31
3508.00,75.12
3507.00,74.93
3506.00,74.74
3505.00,74.54
3504.00,74.35
3503.00,74.15
3502.00,73.96
3501.00,73.77
3500.00,73.58
3499.00,73.39
3498.00,73.21
3497.00,73.02
3496.00,72.84
3495.00,72.66
3494.00,72.47
3493.00,72.29
3492.00,72.10
3491.00,71.91
3490.00,71.72
3489.00,71.54
3488.00,71.35
3487.00,71.17
3486.00,70.99
3485.00,70.81
3484.00,70.62
3483.00,70.43
3482.00,70.24
3481.00,70.05
3480.00,69.87
3479.00,69.69
3478.00,69.52
3477.00,69.34
3476.00,69.17
3475.00,69.00
3474.00,68.82
3473.00,68.63
3472.00,68.45
3471.00,68.26
3470.00,68.08
3469.00,67.91
3468.00,67.74
3467.00,67.57
3466.00,67.40
3465.00,67.23
3464.00,67.06
3463.00,66.88
3462.00,66.71
3461.00,66.54
3460.00,66.37
3459.00,66.21
3458.00,66.04
3457.00,65.88
3456.00,65.71
3455.00,65.54
3454.00,65.37
3453.00,65.20
3452.00,65.04
3451.00,64.88
3450.00,64.71
3449.00,64.54
3448.00,64.37
3447.00,64.20
3446.00,64.03
3445.00,63.87
3444.00,63.71
3443.00,63.55
3442.00,63.39
3441.00,63.22
3440.00,63.06
3439.00,62.90
3438.00,62.74
3437.00,62.58
3436.00,62.43
3435.00,62.29
3434.00,62.14
3433.00,61.98
3432.00,61.83
3431.00,61.67
3430.00,61.52
3429.00,61.37
3428.00,61.23
3427.00,61.08
3426.00,60.93
3425.00,60.78
3424.00,60.63
3423.00,60.48
3422.00,60.33
3421.00,60.19
3420.00,60.04
3419.00,59.90
3418.00,59.76
3417.00,59.62
3416.00,59.48
3415.00,59.35
3414.00,59.21
3413.00,59.07
3412.00,58.94
3411.00,58.80
3410.00,58.66
3409.00,58.53
3408.00,58.40
3407.00,58.27
3406.00,58.14
3405.00,58.00
3404.00,57.86
3403.00,57.73
3402.00,57.60
3401.00,57.47
3400.00,57.35
3399.00,57.23
3398.00,57.11
3397.00,56.99
3396.00,56.87
3395.00,56.75
3394.00,56.63
3393.00,56.51
3392.00,56.39
3391.00,56.29
3390.00,56.18
3389.00,56.07
3388.00,55.97
3387.00,55.86
3386.00,55.76
3385.00,55.65
3384.00,55.54
3383.00,55.43
3382.00,55.32
3381.00,55.21
3380.00,55.11
3379.00,55.01
3378.00,54.91
3377.00,54.82
3376.00,54.73
3375.00,54.63
3374.00,54.54
3373.00,54.43
3372.00,54.33
3371.00,54.23
3370.00,54.14
3369.00,54.05
3368.00,53.97
3367.00,53.90
3366.00,53.82
3365.00,53.74
3364.00,53.66
3363.00,53.58
3362.00,53.50
3361.00,53.42
3360.00,53.35
3359.00,53.28
3358.00,53.21
3357.00,53.14
3356.00,53.07
3355.00,53.00
3354.00,52.92
3353.00,52.85
3352.00,52.77
3351.00,52.71
3350.00,52.64
3349.00,52.58
3348.00,52.53
3347.00,52.47
3346.00,52.41
3345.00,52.35
3344.00,52.29
3343.00,52.23
3342.00,52.17
3341.00,52.11
3340.00,52.05
3339.00,52.00
3338.00,51.95
3337.00,51.91
3336.00,51.86
3335.00,51.81
3334.00,51.76
3333.00,51.72
3332.00,51.67
3331.00,51.63
3330.00,51.59
3329.00,51.54
3328.00,51.50
3327.00,51.46
3326.00,51.41
3325.00,51.37
3324.00,51.34
3323.00,51.30
3322.00,51.27
3321.00,51.24
3320.00,51.21
3319.00,51.18
3318.00,51.14
3317.00,51.10
3316.00,51.07
3315.00,51.04
3314.00,51.01
3313.00,50.98
3312.00,50.95
3311.00,50.92
3310.00,50.89
3309.00,50.86
3308.00,50.83
3307.00,50.80
3306.00,50.78
3305.00,50.76
3304.00,50.74
3303.00,50.73
3302.00,50.71
3301.00,50.69
3300.00,50.67
3299.00,50.65
3298.00,50.63
3297.00,50.62
3296.00,50.60
3295.00,50.58
3294.00,50.56
3293.00,50.54
3292.00,50.53
3291.00,50.52
3290.00,50.51
3289.00,50.50
3288.00,50.49
3287.00,50.48
3286.00,50.47
3285.00,50.46
3284.00,50.45
3283.00,50.45
3282.00,50.44
3281.00,50.44
3280.00,50.44
3279.00,50.44
3278.00,50.44
3277.00,50.43
3276.00,50.43
3275.00,50.43
3274.00,50.43
3273.00,50.43
3272.00,50.43
3271.00,50.44
3270.00,50.46
3269.00,50.47
3268.00,50.48
3267.00,50.49
3266.00,50.51
3265.00,50.52
3264.00,50.53
3263.00,50.54
3262.00,50.56
3261.00,50.58
3260.00,50.60
3259.00,50.62
3258.00,50.64
3257.00,50.66
3256.00,50.68
3255.00,50.70
3254.00,50.73
3253.00,50.76
3252.00,50.79
3251.00,50.82
3250.00,50.85
3249.00,50.88
3248.00,50.91
3247.00,50.95
3246.00,50.99
3245.00,51.03
3244.00,51.07
3243.00,51.12
3242.00,51.16
3241.00,51.21
3240.00,51.26
3239.00,51.31
3238.00,51.36
3237.00,51.41
3236.00,51.46
3235.00,51.51
3234.00,51.57
3233.00,51.62
3232.00,51.69
3231.00,51.75
3230.00,51.82
3229.00,51.89
3228.00,51.95
3227.00,52.01
3226.00,52.08
3225.00,52.15
3224.00,52.23
3223.00,52.30
3222.00,52.38
3221.00,52.47
3220.00,52.55
3219.00,52.63
3218.00,52.71
3217.00,52.79
3216.00,52.87
3215.00,52.96
3214.00,53.05
3213.00,53.14
3212.00,53.23
3211.00,53.32
3210.00,53.42
3209.00,53.52
3208.00,53.62
3207.00,53.73
3206.00,53.84
3205.00,53.94
3204.00,54.05
3203.00,54.15
3202.00,54.26
3201.00,54.37
3200.00,54.48
3199.00,54.59
3198.00,54.70
3197.00,54.82
3196.00,54.94
3195.00,55.06
3194.00,55.18
3193.00,55.31
3192.00,55.43
3191.00,55.55
3190.00,55.67
3189.00,55.80
3188.00,55.94
3187.00,56.07
3186.00,56.20
3185.00,56.34
3184.00,56.47
3183.00,56.61
3182.00,56.75
3181.00,56.89
3180.00,57.03
3179.00,57.17
3178.00,57.31
3177.00,57.45
3176.00,57.60
3175.00,57.75
3174.00,57.90
3173.00,58.05
3172.00,58.21
3171.00,58.36
3170.00,58.52
3169.00,58.67
3168.00,58.83
3167.00,58.99
3166.00,59.15
3165.00,59.31
3164.00,59.46
3163.00,59.62
3162.00,59.78
3161.00,59.94
3160.00,60.10
3159.00,60.27
3158.00,60.44
3157.00,60.61
3156.00,60.78
3155.00,60.95
3154.00,61.12
3153.00,61.28
3152.00,61.46
3151.00,61.63
3150.00,61.81
3149.00,62.00
3148.00,62.18
3147.00,62.36
3146.00,62.53
3145.00,62.70
3144.00,62.87
3143.00,63.05
3142.00,63.23
3141.00,63.41
3140.00,63.59
3139.00,63.78
3138.00,63.96
3137.00,64.15
3136.00,64.33
3135.00,64.52
3134.00,64.70
3133.00,64.89
3132.00,65.07
3131.00,65.26
3130.00,65.44
3129.00,65.62
3128.00,65.81
3127.00,66.00
3126.00,66.19
3125.00,66.37
3124.00,66.56
3123.00,66.74
3122.00,66.93
3121.00,67.12
3120.00,67.31
3119.00,67.50
3118.00,67.69
3117.00,67.88
3116.00,68.06
3115.00,68.26
3114.00,68.45
3113.00,68.64
3112.00,68.83
3111.00,69.01
3110.00,69.20
3109.00,69.39
3108.00,69.58
3107.00,69.77
3106.00,69.97
3105.00,70.16
3104.00,70.35
3103.00,70.54
3102.00,70.73
3101.00,70.92
3100.00,71.11
3099.00,71.30
3098.00,71.49
3097.00,71.68
3096.00,71.86
3095.00,72.05
3094.00,72.23
3093.00,72.42
3092.00,72.61
3091.00,72.80
3090.00,72.98
3089.00,73.17
3088.00,73.35
3087.00,73.53
3086.00,73.71
3085.00,73.89
3084.00,74.07
3083.00,74.25
3082.00,74.43
3081.00,74.62
3080.00,74.81
3079.00,75.00
3078.00,75.18
3077.00,75.36
3076.00,75.54
3075.00,75.72
3074.00,75.89
3073.00,76.07
3072.00,76.25
3071.00,76.43
3070.00,76.60
3069.00,76.77
3068.00,76.95
3067.00,77.12
3066.00,77.29
3065.00,77.46
3064.00,77.64
3063.00,77.81
3062.00,77.98
3061.00,78.15
3060.00,78.32
3059.00,78.49
3058.00,78.65
3057.00,78.82
3056.00,78.98
3055.00,79.14
3054.00,79.31
3053.00,79.47
3052.00,79.64
3051.00,79.80
3050.00,79.95
3049.00,80.11
3048.00,80.26
3047.00,80.42
3046.00,80.58
3045.00,80.73
3044.00,80.88
3043.00,81.04
3042.00,81.19
3041.00,81.34
3040.00,81.49
3039.00,81.63
3038.00,81.78
3037.00,81.92
3036.00,82.06
3035.00,82.20
3034.00,82.35
3033.00,82.49
3032.00,82.63
3031.00,82.77
3030.00,82.91
3029.00,83.04
3028.00,83.17
3027.00,83.30
3026.00,83.42
3025.00,83.55
3024.00,83.67
3023.00,83.80
3022.00,83.92
3021.00,84.04
3020.00,84.15
3019.00,84.26
3018.00,84.38
3017.00,84.49
3016.00,84.59
3015.00,84.69
3014.00,84.78
3013.00,84.88
3012.00,84.97
3011.00,85.07
3010.00,85.15
3009.00,85.23
3008.00,85.31
3007.00,85.38
3006.00,85.45
3005.00,85.52
3004.00,85.58
3003.00,85.63
3002.00,85.68
3001.00,85.72
3000.00,85.75
2999.00,85.78
2998.00,85.81
2997.00,85.83
2996.00,85.84
2995.00,85.84
2994.00,85.84
2993.00,85.84
2992.00,85.83
2991.00,85.82
2990.00,85.79
2989.00,85.76
2988.00,85.72
2987.00,85.69
2986.00,85.65
2985.00,85.61
2984.00,85.56
2983.00,85.51
2982.00,85.45
2981.00,85.39
2980.00,85.32
2979.00,85.26
2978.00,85.19
2977.00,85.13
2976.00,85.07
2975.00,85.00
2974.00,84.93
2973.00,84.86
2972.00,84.78
2971.00,84.70
2970.00,84.62
2969.00,84.54
2968.00,84.45
2967.00,84.35
2966.00,84.24
2965.00,84.13
2964.00,84.01
2963.00,83.89
2962.00,83.75
2961.00,83.60
2960.00,83.43
2959.00,83.26
2958.00,83.09
2957.00,82.91
2956.00,82.73
2955.00,82.54
2954.00,82.36
2953.00,82.16
2952.00,81.97
2951.00,81.78
2950.00,81.59
2949.00,81.40
2948.00,81.21
2947.00,81.02
2946.00,80.84
2945.00,80.65
2944.00,80.48
2943.00,80.32
2942.00,80.18
2941.00,80.05
2940.00,79.93
2939.00,79.81
2938.00,79.71
2937.00,79.62
2936.00,79.55
2935.00,79.49
2934.00,79.45
2933.00,79.42
2932.00,79.41
2931.00,79.42
2930.00,79.43
2929.00,79.45
2928.00,79.48
2927.00,79.52
2926.00,79.56
2925.00,79.62
2924.00,79.68
2923.00,79.75
2922.00,79.82
2921.00,79.89
2920.00,79.96
2919.00,80.03
2918.00,80.11
2917.00,80.19
2916.00,80.28
2915.00,80.38
2914.00,80.48
2913.00,80.58
2912.00,80.67
2911.00,80.76
2910.00,80.84
2909.00,80.91
2908.00,80.98
2907.00,81.03
2906.00,81.08
2905.00,81.11
2904.00,81.15
2903.00,81.17
2902.00,81.19
2901.00,81.21
2900.00,81.22
2899.00,81.23
2898.00,81.24
2897.00,81.25
2896.00,81.26
2895.00,81.27
2894.00,81.27
2893.00,81.28
2892.00,81.28
2891.00,81.29
2890.00,81.30
2889.00,81.32
2888.00,81.34
2887.00,81.38
2886.00,81.43
2885.00,81.49
2884.00,81.55
2883.00,81.62
2882.00,81.70
2881.00,81.79
2880.00,81.89
2879.00,82.00
2878.00,82.12
2877.00,82.24
2876.00,82.38
2875.00,82.51
2874.00,82.65
2873.00,82.80
2872.00,82.95
2871.00,83.10
2870.00,83.25
2869.00,83.40
2868.00,83.55
2867.00,83.69
2866.00,83.84
2865.00,83.98
2864.00,84.12
2863.00,84.25
2862.00,84.38
2861.00,84.50
2860.00,84.62
2859.00,84.74
2858.00,84.85
2857.00,84.96
2856.00,85.07
2855.00,85.18
2854.00,85.29
2853.00,85.39
2852.00,85.49
2851.00,85.59
2850.00,85.70
2849.00,85.82
2848.00,85.95
2847.00,86.09
2846.00,86.23
2845.00,86.38
2844.00,86.52
2843.00,86.65
2842.00,86.78
2841.00,86.90
2840.00,87.02
2839.00,87.14
2838.00,87.25
2837.00,87.35
2836.00,87.46
2835.00,87.56
2834.00,87.66
2833.00,87.76
2832.00,87.86
2831.00,87.96
2830.00,88.05
2829.00,88.14
2828.00,88.23
2827.00,88.32
2826.00,88.41
2825.00,88.50
2824.00,88.59
2823.00,88.68
2822.00,88.76
2821.00,88.84
2820.00,88.92
2819.00,89.00
2818.00,89.08
2817.00,89.15
2816.00,89.23
2815.00,89.30
2814.00,89.37
2813.00,89.44
2812.00,89.50
2811.00,89.57
2810.00,89.64
2809.00,89.71
2808.00,89.78
2807.00,89.85
2806.00,89.91
2805.00,89.97
2804.00,90.03
2803.00,90.10
2802.00,90.16
2801.00,90.21
2800.00,90.27
2799.00,90.33
2798.00,90.39
2797.00,90.45
2796.00,90.51
2795.00,90.57
2794.00,90.62
2793.00,90.67
2792.00,90.72
2791.00,90.77
2790.00,90.82
2789.00,90.87
2788.00,90.92
2787.00,90.97
2786.00,91.02
2785.00,91.06
2784.00,91.11
2783.00,91.15
2782.00,91.20
2781.00,91.25
2780.00,91.29
2779.00,91.34
2778.00,91.38
2777.00,91.41
2776.00,91.45
2775.00,91.49
2774.00,91.53
2773.00,91.57
2772.00,91.61
2771.00,91.65
2770.00,91.69
2769.00,91.72
2768.00,91.76
2767.00,91.79
2766.00,91.82
2765.00,91.86
2764.00,91.89
2763.00,91.92
2762.00,91.95
2761.00,91.97
2760.00,92.01
2759.00,92.04
2758.00,92.07
2757.00,92.09
2756.00,92.12
2755.00,92.14
2754.00,92.16
2753.00,92.19
2752.00,92.22
2751.00,92.24
2750.00,92.27
2749.00,92.29
2748.00,92.32
2747.00,92.34
2746.00,92.37
2745.00,92.39
2744.00,92.41
2743.00,92.43
2742.00,92.45
2741.00,92.46
2740.00,92.48
2739.00,92.50
2738.00,92.51
2737.00,92.53
2736.00,92.55
2735.00,92.57
2734.00,92.59
2733.00,92.61
2732.00,92.63
2731.00,92.65
2730.00,92.66
2729.00,92.68
2728.00,92.69
2727.00,92.71
2726.00,92.74
2725.00,92.76
2724.00,92.78
2723.00,92.80
2722.00,92.82
2721.00,92.84
2720.00,92.87
2719.00,92.90
2718.00,92.92
2717.00,92.95
2716.00,92.97
2715.00,92.99
2714.00,93.01
2713.00,93.03
2712.00,93.05
2711.00,93.07
2710.00,93.09
2709.00,93.12
2708.00,93.14
2707.00,93.17
2706.00,93.19
2705.00,93.22
2704.00,93.24
2703.00,93.26
2702.00,93.28
2701.00,93.30
2700.00,93.33
2699.00,93.35
2698.00,93.38
2697.00,93.40
2696.00,93.43
2695.00,93.46
2694.00,93.49
2693.00,93.52
2692.00,93.55
2691.00,93.57
2690.00,93.60
2689.00,93.62
2688.00,93.64
2687.00,93.67
2686.00,93.70
2685.00,93.73
2684.00,93.76
2683.00,93.80
2682.00,93.83
2681.00,93.86
2680.00,93.89
2679.00,93.92
2678.00,93.95
2677.00,93.98
2676.00,94.01
2675.00,94.04
2674.00,94.07
2673.00,94.10
2672.00,94.14
2671.00,94.17
2670.00,94.21
2669.00,94.24
2668.00,94.28
2667.00,94.31
2666.00,94.34
2665.00,94.37
2664.00,94.40
2663.00,94.43
2662.00,94.47
2661.00,94.49
2660.00,94.52
2659.00,94.56
2658.00,94.59
2657.00,94.63
2656.00,94.66
2655.00,94.70
2654.00,94.73
2653.00,94.77
2652.00,94.80
2651.00,94.83
2650.00,94.86
2649.00,94.89
2648.00,94.93
2647.00,94.96
2646.00,94.99
2645.00,95.02
2644.00,95.05
2643.00,95.08
2642.00,95.11
2641.00,95.14
2640.00,95.17
2639.00,95.21
2638.00,95.24
2637.00,95.27
2636.00,95.29
2635.00,95.32
2634.00,95.35
2633.00,95.38
2632.00,95.41
2631.00,95.45
2630.00,95.47
2629.00,95.50
2628.00,95.52
2627.00,95.55
2626.00,95.58
2625.00,95.60
2624.00,95.63
2623.00,95.65
2622.00,95.68
2621.00,95.71
2620.00,95.74
2619.00,95.77
2618.00,95.79
2617.00,95.81
2616.00,95.83
2615.00,95.84
2614.00,95.87
2613.00,95.89
2612.00,95.91
2611.00,95.94
2610.00,95.96
2609.00,95.98
2608.00,96.00
2607.00,96.02
2606.00,96.04
2605.00,96.05
2604.00,96.07
2603.00,96.09
2602.00,96.11
2601.00,96.14
2600.00,96.16
2599.00,96.18
2598.00,96.20
2597.00,96.22
2596.00,96.23
2595.00,96.25
2594.00,96.27
2593.00,96.29
2592.00,96.30
2591.00,96.32
2590.00,96.33
2589.00,96.34
2588.00,96.35
2587.00,96.37
2586.00,96.39
2585.00,96.40
2584.00,96.42
2583.00,96.44
2582.00,96.46
2581.00,96.47
2580.00,96.48
2579.00,96.50
2578.00,96.51
2577.00,96.53
2576.00,96.54
2575.00,96.55
2574.00,96.57
2573.00,96.58
2572.00,96.59
2571.00,96.60
2570.00,96.61
2569.00,96.61
2568.00,96.62
2567.00,96.63
2566.00,96.65
2565.00,96.66
2564.00,96.67
2563.00,96.68
2562.00,96.68
2561.00,96.69
2560.00,96.71
2559.00,96.72
2558.00,96.73
2557.00,96.74
2556.00,96.75
2555.00,96.76
2554.00,96.78
2553.00,96.79
2552.00,96.80
2551.00,96.80
2550.00,96.81
2549.00,96.82
2548.00,96.83
2547.00,96.84
2546.00,96.85
2545.00,96.86
2544.00,96.87
2543.00,96.87
2542.00,96.89
2541.00,96.90
2540.00,96.91
2539.00,96.93
2538.00,96.95
2537.00,96.97
2536.00,96.98
2535.00,96.98
2534.00,96.99
2533.00,97.00
2532.00,97.00
2531.00,97.01
2530.00,97.02
2529.00,97.03
2528.00,97.04
2527.00,97.05
2526.00,97.05
2525.00,97.05
2524.00,97.06
2523.00,97.07
2522.00,97.09
2521.00,97.10
2520.00,97.12
2519.00,97.13
2518.00,97.14
2517.00,97.15
2516.00,97.15
2515.00,97.15
2514.00,97.16
2513.00,97.17
2512.00,97.18
2511.00,97.19
2510.00,97.20
2509.00,97.21
2508.00,97.23
2507.00,97.24
2506.00,97.26
2505.00,97.28
2504.00,97.29
2503.00,97.29
2502.00,97.30
2501.00,97.30
2500.00,97.31
2499.00,97.32
2498.00,97.33
2497.00,97.34
2496.00,97.35
2495.00,97.36
2494.00,97.38
2493.00,97.39
2492.00,97.41
2491.00,97.43
2490.00,97.44
2489.00,97.45
2488.00,97.46
2487.00,97.47
2486.00,97.48
2485.00,97.49
2484.00,97.51
2483.00,97.52
2482.00,97.53
2481.00,97.55
2480.00,97.56
2479.00,97.58
2478.00,97.60
2477.00,97.61
2476.00,97.62
2475.00,97.63
2474.00,97.64
2473.00,97.66
2472.00,97.67
2471.00,97.69
2470.00,97.71
2469.00,97.73
2468.00,97.74
2467.00,97.76
2466.00,97.78
2465.00,97.80
2464.00,97.82
2463.00,97.83
2462.00,97.84
2461.00,97.85
2460.00,97.86
2459.00,97.88
2458.00,97.90
2457.00,97.92
2456.00,97.94
2455.00,97.96
2454.00,97.97
2453.00,97.99
2452.00,97.99
2451.00,98.00
2450.00,98.01
2449.00,98.02
2448.00,98.04
2447.00,98.06
2446.00,98.08
2445.00,98.10
2444.00,98.12
2443.00,98.13
2442.00,98.15
2441.00,98.16
2440.00,98.17
2439.00,98.17
2438.00,98.18
2437.00,98.19
2436.00,98.20
2435.00,98.21
2434.00,98.23
2433.00,98.25
2432.00,98.27
2431.00,98.29
2430.00,98.32
2429.00,98.33
2428.00,98.33
2427.00,98.33
2426.00,98.34
2425.00,98.34
2424.00,98.35
2423.00,98.37
2422.00,98.39
2421.00,98.40
2420.00,98.41
2419.00,98.42
2418.00,98.43
2417.00,98.44
2416.00,98.45
2415.00,98.46
2414.00,98.47
2413.00,98.48
2412.00,98.49
2411.00,98.50
2410.00,98.51
2409.00,98.52
2408.00,98.53
2407.00,98.54
2406.00,98.54
2405.00,98.54
2404.00,98.54
2403.00,98.56
2402.00,98.57
2401.00,98.58
2400.00,98.59
2399.00,98.60
2398.00,98.60
2397.00,98.61
2396.00,98.62
2395.00,98.63
2394.00,98.64
2393.00,98.64
2392.00,98.65
2391.00,98.66
2390.00,98.67
2389.00,98.68
2388.00,98.68
2387.00,98.68
2386.00,98.68
2385.00,98.69
2384.00,98.69
2383.00,98.69
2382.00,98.69
2381.00,98.68
2380.00,98.68
2379.00,98.69
2378.00,98.70
2377.00,98.71
2376.00,98.72
2375.00,98.73
2374.00,98.74
2373.00,98.74
2372.00,98.74
2371.00,98.74
2370.00,98.74
2369.00,98.74
2368.00,98.75
2367.00,98.75
2366.00,98.76
2365.00,98.77
2364.00,98.77
2363.00,98.78
2362.00,98.78
2361.00,98.78
2360.00,98.77
2359.00,98.78
2358.00,98.78
2357.00,98.78
2356.00,98.78
2355.00,98.79
2354.00,98.80
2353.00,98.80
2352.00,98.80
2351.00,98.80
2350.00,98.80
2349.00,98.80
2348.00,98.81
2347.00,98.81
2346.00,98.81
2345.00,98.81
2344.00,98.82
2343.00,98.82
2342.00,98.81
2341.00,98.81
2340.00,98.81
2339.00,98.81
2338.00,98.82
2337.00,98.82
2336.00,98.82
2335.00,98.83
2334.00,98.83
2333.00,98.83
2332.00,98.83
2331.00,98.83
2330.00,98.84
2329.00,98.84
2328.00,98.83
2327.00,98.84
2326.00,98.84
2325.00,98.85
2324.00,98.85
2323.00,98.84
2322.00,98.83
2321.00,98.82
2320.00,98.82
2319.00,98.83
2318.00,98.84
2317.00,98.84
2316.00,98.84
2315.00,98.84
2314.00,98.84
2313.00,98.83
2312.00,98.81
2311.00,98.81
2310.00,98.81
2309.00,98.81
2308.00,98.82
2307.00,98.83
2306.00,98.84
2305.00,98.83
2304.00,98.83
2303.00,98.82
2302.00,98.83
2301.00,98.83
2300.00,98.83
2299.00,98.84
2298.00,98.84
2297.00,98.84
2296.00,98.83
2295.00,98.82
2294.00,98.82
2293.00,98.81
2292.00,98.82
2291.00,98.82
2290.00,98.82
2289.00,98.82
2288.00,98.82
2287.00,98.82
2286.00,98.81
2285.00,98.80
2284.00,98.79
2283.00,98.79
2282.00,98.79
2281.00,98.79
2280.00,98.79
2279.00,98.80
2278.00,98.81
2277.00,98.80
2276.00,98.79
2275.00,98.78
2274.00,98.78
2273.00,98.78
2272.00,98.78
2271.00,98.77
2270.00,98.78
2269.00,98.78
2268.00,98.80
2267.00,98.81
2266.00,98.81
2265.00,98.81
2264.00,98.79
2263.00,98.78
2262.00,98.76
2261.00,98.75
2260.00,98.73
2259.00,98.73
2258.00,98.73
2257.00,98.72
2256.00,98.71
2255.00,98.70
2254.00,98.70
2253.00,98.70
2252.00,98.72
2251.00,98.74
2250.00,98.74
2249.00,98.74
2248.00,98.72
2247.00,98.70
2246.00,98.68
2245.00,98.67
2244.00,98.67
2243.00,98.68
2242.00,98.69
2241.00,98.70
2240.00,98.69
2239.00,98.69
2238.00,98.69
2237.00,98.70
2236.00,98.71
2235.00,98.71
2234.00,98.70
2233.00,98.68
2232.00,98.65
2231.00,98.64
2230.00,98.63
2229.00,98.64
2228.00,98.63
2227.00,98.63
2226.00,98.63
2225.00,98.63
2224.00,98.63
2223.00,98.63
2222.00,98.64
2221.00,98.64
2220.00,98.63
2219.00,98.61
2218.00,98.61
2217.00,98.60
2216.00,98.60
2215.00,98.60
2214.00,98.60
2213.00,98.58
2212.00,98.57
2211.00,98.57
2210.00,98.58
2209.00,98.57
2208.00,98.55
2207.00,98.52
2206.00,98.51
2205.00,98.50
2204.00,98.49
2203.00,98.50
2202.00,98.52
2201.00,98.53
2200.00,98.54
2199.00,98.52
2198.00,98.50
2197.00,98.47
2196.00,98.46
2195.00,98.46
2194.00,98.47
2193.00,98.47
2192.00,98.47
2191.00,98.46
2190.00,98.45
2189.00,98.43
2188.00,98.42
2187.00,98.42
2186.00,98.43
2185.00,98.43
2184.00,98.42
2183.00,98.41
2182.00,98.40
2181.00,98.37
2180.00,98.35
2179.00,98.35
2178.00,98.35
2177.00,98.35
2176.00,98.34
2175.00,98.34
2174.00,98.35
2173.00,98.37
2172.00,98.39
2171.00,98.41
2170.00,98.41
2169.00,98.41
2168.00,98.41
2167.00,98.40
2166.00,98.39
2165.00,98.38
2164.00,98.36
2163.00,98.34
2162.00,98.35
2161.00,98.36
2160.00,98.36
2159.00,98.36
2158.00,98.35
2157.00,98.33
2156.00,98.30
2155.00,98.28
2154.00,98.27
2153.00,98.24
2152.00,98.23
2151.00,98.22
2150.00,98.24
2149.00,98.27
2148.00,98.29
2147.00,98.30
2146.00,98.29
2145.00,98.27
2144.00,98.25
2143.00,98.25
2142.00,98.25
2141.00,98.25
2140.00,98.23
2139.00,98.21
2138.00,98.20
2137.00,98.19
2136.00,98.20
2135.00,98.22
2134.00,98.24
2133.00,98.24
2132.00,98.24
2131.00,98.23
2130.00,98.24
2129.00,98.23
2128.00,98.22
2127.00,98.21
2126.00,98.20
2125.00,98.20
2124.00,98.20
2123.00,98.21
2122.00,98.22
2121.00,98.22
2120.00,98.22
2119.00,98.22
2118.00,98.23
2117.00,98.22
2116.00,98.21
2115.00,98.21
2114.00,98.22
2113.00,98.23
2112.00,98.24
2111.00,98.25
2110.00,98.25
2109.00,98.25
2108.00,98.24
2107.00,98.23
2106.00,98.24
2105.00,98.25
2104.00,98.25
2103.00,98.25
2102.00,98.25
2101.00,98.25
2100.00,98.25
2099.00,98.25
2098.00,98.26
2097.00,98.27
2096.00,98.29
2095.00,98.31
2094.00,98.33
2093.00,98.34
2092.00,98.34
2091.00,98.35
2090.00,98.36
2089.00,98.38
2088.00,98.39
2087.00,98.40
2086.00,98.42
2085.00,98.42
2084.00,98.43
2083.00,98.44
2082.00,98.44
2081.00,98.44
2080.00,98.43
2079.00,98.43
2078.00,98.44
2077.00,98.45
2076.00,98.45
2075.00,98.46
2074.00,98.46
2073.00,98.46
2072.00,98.46
2071.00,98.46
2070.00,98.46
2069.00,98.46
2068.00,98.47
2067.00,98.50
2066.00,98.52
2065.00,98.54
2064.00,98.54
2063.00,98.53
2062.00,98.53
2061.00,98.53
2060.00,98.54
2059.00,98.57
2058.00,98.60
2057.00,98.61
2056.00,98.61
2055.00,98.60
2054.00,98.59
2053.00,98.58
2052.00,98.58
2051.00,98.59
2050.00,98.61
2049.00,98.64
2048.00,98.67
2047.00,98.69
2046.00,98.70
2045.00,98.69
2044.00,98.67
2043.00,98.68
2042.00,98.70
2041.00,98.71
2040.00,98.72
2039.00,98.73
2038.00,98.77
2037.00,98.80
2036.00,98.81
2035.00,98.83
2034.00,98.84
2033.00,98.83
2032.00,98.81
2031.00,98.79
2030.00,98.77
2029.00,98.74
2028.00,98.73
2027.00,98.75
2026.00,98.78
2025.00,98.82
2024.00,98.84
2023.00,98.87
2022.00,98.89
2021.00,98.90
2020.00,98.91
2019.00,98.93
2018.00,98.95
2017.00,98.95
2016.00,98.94
2015.00,98.96
2014.00,98.98
2013.00,98.99
2012.00,98.99
2011.00,98.99
2010.00,99.01
2009.00,99.01
2008.00,99.01
2007.00,99.01
2006.00,99.00
2005.00,98.99
2004.00,98.97
2003.00,98.97
2002.00,98.98
2001.00,98.99
2000.00,98.99
1999.00,99.01
1998.00,99.03
1997.00,99.04
1996.00,99.03
1995.00,99.04
1994.00,99.07
1993.00,99.09
1992.00,99.10
1991.00,99.10
1990.00,99.09
1989.00,99.08
1988.00,99.07
1987.00,99.08
1986.00,99.09
1985.00,99.10
1984.00,99.11
1983.00,99.12
1982.00,99.13
1981.00,99.15
1980.00,99.17
1979.00,99.21
1978.00,99.25
1977.00,99.24
1976.00,99.20
1975.00,99.18
1974.00,99.18
1973.00,99.18
1972.00,99.16
1971.00,99.15
1970.00,99.15
1969.00,99.14
1968.00,99.14
1967.00,99.15
1966.00,99.18
1965.00,99.19
1964.00,99.18
1963.00,99.17
1962.00,99.17
1961.00,99.16
1960.00,99.15
1959.00,99.15
1958.00,99.17
1957.00,99.17
1956.00,99.16
1955.00,99.15
1954.00,99.14
1953.00,99.15
1952.00,99.15
1951.00,99.18
1950.00,99.20
1949.00,99.20
1948.00,99.18
1947.00,99.15
1946.00,99.13
1945.00,99.11
1944.00,99.11
1943.00,99.14
1942.00,99.18
1941.00,99.20
1940.00,99.20
1939.00,99.21
1938.00,99.22
1937.00,99.21
1936.00,99.20
1935.00,99.19
1934.00,99.18
1933.00,99.18
1932.00,99.19
1931.00,99.20
1930.00,99.22
1929.00,99.21
1928.00,99.20
1927.00,99.20
1926.00,99.21
1925.00,99.21
1924.00,99.21
1923.00,99.20
1922.00,99.20
1921.00,99.18
1920.00,99.16
1919.00,99.16
1918.00,99.17
1917.00,99.19
1916.00,99.19
1915.00,99.20
1914.00,99.22
1913.00,99.23
1912.00,99.23
1911.00,99.23
1910.00,99.22
1909.00,99.21
1908.00,99.20
1907.00,99.20
1906.00,99.21
1905.00,99.22
1904.00,99.22
1903.00,99.21
1902.00,99.21
1901.00,99.20
1900.00,99.19
1899.00,99.20
1898.00,99.21
1897.00,99.21
1896.00,99.20
1895.00,99.20
1894.00,99.20
1893.00,99.20
1892.00,99.19
1891.00,99.20
1890.00,99.22
1889.00,99.22
1888.00,99.21
1887.00,99.21
1886.00,99.21
1885.00,99.20
1884.00,99.20
1883.00,99.20
1882.00,99.21
1881.00,99.21
1880.00,99.20
1879.00,99.19
1878.00,99.20
1877.00,99.20
1876.00,99.20
1875.00,99.20
1874.00,99.20
1873.00,99.18
1872.00,99.15
1871.00,99.12
1870.00,99.13
1869.00,99.16
1868.00,99.18
1867.00,99.21
1866.00,99.23
1865.00,99.23
1864.00,99.23
1863.00,99.22
1862.00,99.22
1861.00,99.21
1860.00,99.21
1859.00,99.21
1858.00,99.22
1857.00,99.22
1856.00,99.22
1855.00,99.22
1854.00,99.23
1853.00,99.22
1852.00,99.21
1851.00,99.20
1850.00,99.20
1849.00,99.19
1848.00,99.17
1847.00,99.16
1846.00,99.17
1845.00,99.19
1844.00,99.21
1843.00,99.22
1842.00,99.22
1841.00,99.22
1840.00,99.22
1839.00,99.21
1838.00,99.21
1837.00,99.21
1836.00,99.22
1835.00,99.23
1834.00,99.22
1833.00,99.21
1832.00,99.20
1831.00,99.20
1830.00,99.22
1829.00,99.22
1828.00,99.21
1827.00,99.20
1826.00,99.21
1825.00,99.21
1824.00,99.21
1823.00,99.22
1822.00,99.23
1821.00,99.23
1820.00,99.23
1819.00,99.22
1818.00,99.23
1817.00,99.23
1816.00,99.22
1815.00,99.22
1814.00,99.21
1813.00,99.20
1812.00,99.20
1811.00,99.21
1810.00,99.23
1809.00,99.24
1808.00,99.24
1807.00,99.24
1806.00,99.24
1805.00,99.22
1804.00,99.19
1803.00,99.18
1802.00,99.19
1801.00,99.20
1800.00,99.22
1799.00,99.23
1798.00,99.23
1797.00,99.22
1796.00,99.20
1795.00,99.18
1794.00,99.18
1793.00,99.19
1792.00,99.20
1791.00,99.21
1790.00,99.22
1789.00,99.23
1788.00,99.22
1787.00,99.21
1786.00,99.20
1785.00,99.20
1784.00,99.19
1783.00,99.19
1782.00,99.20
1781.00,99.20
1780.00,99.19
1779.00,99.19
1778.00,99.19
1777.00,99.18
1776.00,99.16
1775.00,99.14
1774.00,99.16
1773.00,99.18
1772.00,99.19
1771.00,99.18
1770.00,99.16
1769.00,99.15
1768.00,99.15
1767.00,99.16
1766.00,99.17
1765.00,99.16
1764.00,99.15
1763.00,99.14
1762.00,99.14
1761.00,99.14
1760.00,99.11
1759.00,99.09
1758.00,99.08
1757.00,99.07
1756.00,99.04
1755.00,99.00
1754.00,98.96
1753.00,98.92
1752.00,98.89
1751.00,98.86
1750.00,98.85
1749.00,98.83
1748.00,98.79
1747.00,98.76
1746.00,98.73
1745.00,98.68
1744.00,98.64
1743.00,98.59
1742.00,98.56
1741.00,98.53
1740.00,98.49
1739.00,98.43
1738.00,98.36
1737.00,98.28
1736.00,98.22
1735.00,98.18
1734.00,98.16
1733.00,98.12
1732.00,98.08
1731.00,98.06
1730.00,98.05
1729.00,98.03
1728.00,98.00
1727.00,97.97
1726.00,97.95
1725.00,97.92
1724.00,97.88
1723.00,97.84
1722.00,97.79
1721.00,97.72
1720.00,97.65
1719.00,97.60
1718.00,97.58
1717.00,97.55
1716.00,97.52
1715.00,97.50
1714.00,97.49
1713.00,97.46
1712.00,97.41
1711.00,97.36
1710.00,97.31
1709.00,97.24
1708.00,97.17
1707.00,97.11
1706.00,97.04
1705.00,96.94
1704.00,96.82
1703.00,96.71
1702.00,96.65
1701.00,96.58
1700.00,96.45
1699.00,96.32
1698.00,96.22
1697.00,96.13
1696.00,96.01
1695.00,95.88
1694.00,95.76
1693.00,95.64
1692.00,95.51
1691.00,95.37
1690.00,95.21
1689.00,95.03
1688.00,94.84
1687.00,94.67
1686.00,94.51
1685.00,94.31
1684.00,94.05
1683.00,93.82
1682.00,93.64
1681.00,93.48
1680.00,93.30
1679.00,93.11
1678.00,92.93
1677.00,92.74
1676.00,92.51
1675.00,92.25
1674.00,92.02
1673.00,91.81
1672.00,91.61
1671.00,91.41
1670.00,91.19
1669.00,90.95
1668.00,90.72
1667.00,90.53
1666.00,90.36
1665.00,90.19
1664.00,89.99
1663.00,89.77
1662.00,89.58
1661.00,89.40
1660.00,89.23
1659.00,89.07
1658.00,88.91
1657.00,88.74
1656.00,88.57
1655.00,88.43
1654.00,88.32
1653.00,88.18
1652.00,88.02
1651.00,87.93
1650.00,87.88
1649.00,87.84
1648.00,87.79
1647.00,87.74
1646.00,87.71
1645.00,87.69
1644.00,87.68
1643.00,87.68
1642.00,87.71
1641.00,87.73
1640.00,87.74
1639.00,87.75
1638.00,87.80
1637.00,87.90
1636.00,88.04
1635.00,88.18
1634.00,88.31
1633.00,88.43
1632.00,88.54
1631.00,88.67
1630.00,88.83
1629.00,89.01
1628.00,89.20
1627.00,89.38
1626.00,89.55
1625.00,89.74
1624.00,89.95
1623.00,90.19
1622.00,90.41
1621.00,90.59
1620.00,90.74
1619.00,90.91
1618.00,91.15
1617.00,91.43
1616.00,91.69
1615.00,91.89
1614.00,92.07
1613.00,92.24
1612.00,92.43
1611.00,92.61
1610.00,92.80
1609.00,92.98
1608.00,93.16
1607.00,93.32
1606.00,93.49
1605.00,93.64
1604.00,93.80
1603.00,93.95
1602.00,94.10
1601.00,94.24
1600.00,94.38
1599.00,94.52
1598.00,94.65
1597.00,94.79
1596.00,94.92
1595.00,95.05
1594.00,95.17
1593.00,95.29
1592.00,95.41
1591.00,95.54
1590.00,95.67
1589.00,95.80
1588.00,95.92
1587.00,96.04
1586.00,96.16
1585.00,96.28
1584.00,96.40
1583.00,96.52
1582.00,96.63
1581.00,96.73
1580.00,96.80
1579.00,96.87
1578.00,96.96
1577.00,97.10
1576.00,97.25
1575.00,97.38
1574.00,97.47
1573.00,97.54
1572.00,97.61
1571.00,97.70
1570.00,97.81
1569.00,97.91
1568.00,97.98
1567.00,98.04
1566.00,98.11
1565.00,98.17
1564.00,98.21
1563.00,98.22
1562.00,98.20
1561.00,98.22
1560.00,98.32
1559.00,98.46
1558.00,98.55
1557.00,98.59
1556.00,98.62
1555.00,98.68
1554.00,98.73
1553.00,98.77
1552.00,98.79
1551.00,98.82
1550.00,98.87
1549.00,98.90
1548.00,98.92
1547.00,98.93
1546.00,98.92
1545.00,98.92
1544.00,98.92
1543.00,98.93
1542.00,98.98
1541.00,99.05
1540.00,99.13
1539.00,99.17
1538.00,99.18
1537.00,99.17
1536.00,99.16
1535.00,99.17
1534.00,99.20
1533.00,99.23
1532.00,99.24
1531.00,99.24
1530.00,99.25
1529.00,99.24
1528.00,99.23
1527.00,99.23
1526.00,99.23
1525.00,99.23
1524.00,99.22
1523.00,99.22
1522.00,99.23
1521.00,99.23
1520.00,99.22
1519.00,99.22
1518.00,99.24
1517.00,99.24
1516.00,99.23
1515.00,99.23
1514.00,99.22
1513.00,99.20
1512.00,99.15
1511.00,99.10
1510.00,99.03
1509.00,98.98
1508.00,98.95
1507.00,98.97
1506.00,98.98
1505.00,98.96
1504.00,98.92
1503.00,98.87
1502.00,98.83
1501.00,98.75
1500.00,98.66
1499.00,98.58
1498.00,98.50
1497.00,98.39
1496.00,98.26
1495.00,98.13
1494.00,98.02
1493.00,97.87
1492.00,97.70
1491.00,97.52
1490.00,97.32
1489.00,97.10
1488.00,96.90
1487.00,96.72
1486.00,96.54
1485.00,96.33
1484.00,96.10
1483.00,95.86
1482.00,95.60
1481.00,95.30
1480.00,94.99
1479.00,94.70
1478.00,94.37
1477.00,94.00
1476.00,93.61
1475.00,93.24
1474.00,92.84
1473.00,92.37
1472.00,91.88
1471.00,91.46
1470.00,91.10
1469.00,90.74
1468.00,90.37
1467.00,89.98
1466.00,89.55
1465.00,89.07
1464.00,88.61
1463.00,88.22
1462.00,87.89
1461.00,87.57
1460.00,87.26
1459.00,86.95
1458.00,86.62
1457.00,86.26
1456.00,85.97
1455.00,85.81
1454.00,85.72
1453.00,85.64
1452.00,85.57
1451.00,85.50
1450.00,85.44
1449.00,85.37
1448.00,85.31
1447.00,85.26
1446.00,85.22
1445.00,85.16
1444.00,85.09
1443.00,85.01
1442.00,84.92
1441.00,84.80
1440.00,84.67
1439.00,84.55
1438.00,84.40
1437.00,84.23
1436.00,84.06
1435.00,83.94
1434.00,83.85
1433.00,83.75
1432.00,83.64
1431.00,83.53
1430.00,83.41
1429.00,83.29
1428.00,83.17
1427.00,83.08
1426.00,83.00
1425.00,82.90
1424.00,82.80
1423.00,82.72
1422.00,82.66
1421.00,82.59
1420.00,82.52
1419.00,82.47
1418.00,82.44
1417.00,82.44
1416.00,82.46
1415.00,82.50
1414.00,82.54
1413.00,82.58
1412.00,82.62
1411.00,82.70
1410.00,82.78
1409.00,82.86
1408.00,82.96
1407.00,83.08
1406.00,83.22
1405.00,83.37
1404.00,83.55
1403.00,83.74
1402.00,83.92
1401.00,84.10
1400.00,84.30
1399.00,84.53
1398.00,84.74
1397.00,84.93
1396.00,85.14
1395.00,85.36
1394.00,85.58
1393.00,85.77
1392.00,85.92
1391.00,86.06
1390.00,86.17
1389.00,86.25
1388.00,86.33
1387.00,86.40
1386.00,86.45
1385.00,86.47
1384.00,86.47
1383.00,86.46
1382.00,86.41
1381.00,86.34
1380.00,86.26
1379.00,86.16
1378.00,86.06
1377.00,85.95
1376.00,85.84
1375.00,85.72
1374.00,85.61
1373.00,85.50
1372.00,85.42
1371.00,85.34
1370.00,85.26
1369.00,85.17
1368.00,85.09
1367.00,85.02
1366.00,84.95
1365.00,84.87
1364.00,84.79
1363.00,84.73
1362.00,84.69
1361.00,84.66
1360.00,84.64
1359.00,84.63
1358.00,84.61
1357.00,84.58
1356.00,84.54
1355.00,84.51
1354.00,84.48
1353.00,84.44
1352.00,84.39
1351.00,84.35
1350.00,84.30
1349.00,84.24
1348.00,84.19
1347.00,84.16
1346.00,84.14
1345.00,84.13
1344.00,84.14
1343.00,84.17
1342.00,84.23
1341.00,84.30
1340.00,84.41
1339.00,84.57
1338.00,84.76
1337.00,84.97
1336.00,85.19
1335.00,85.43
1334.00,85.67
1333.00,85.91
1332.00,86.15
1331.00,86.39
1330.00,86.63
1329.00,86.86
1328.00,87.08
1327.00,87.29
1326.00,87.50
1325.00,87.69
1324.00,87.87
1323.00,88.05
1322.00,88.22
1321.00,88.37
1320.00,88.52
1319.00,88.68
1318.00,88.85
1317.00,89.01
1316.00,89.17
1315.00,89.34
1314.00,89.52
1313.00,89.70
1312.00,89.89
1311.00,90.09
1310.00,90.29
1309.00,90.49
1308.00,90.69
1307.00,90.89
1306.00,91.10
1305.00,91.29
1304.00,91.49
1303.00,91.68
1302.00,91.85
1301.00,92.02
1300.00,92.17
1299.00,92.31
1298.00,92.45
1297.00,92.56
1296.00,92.67
1295.00,92.75
1294.00,92.83
1293.00,92.88
1292.00,92.92
1291.00,92.95
1290.00,92.97
1289.00,92.98
1288.00,92.98
1287.00,92.99
1286.00,92.98
1285.00,92.97
1284.00,92.95
1283.00,92.93
1282.00,92.90
1281.00,92.87
1280.00,92.83
1279.00,92.79
1278.00,92.74
1277.00,92.68
1276.00,92.61
1275.00,92.52
1274.00,92.41
1273.00,92.29
1272.00,92.15
1271.00,91.99
1270.00,91.83
1269.00,91.66
1268.00,91.48
1267.00,91.31
1266.00,91.14
1265.00,90.97
1264.00,90.82
1263.00,90.69
1262.00,90.59
1261.00,90.51
1260.00,90.46
1259.00,90.43
1258.00,90.43
1257.00,90.43
1256.00,90.46
1255.00,90.50
1254.00,90.56
1253.00,90.61
1252.00,90.67
1251.00,90.73
1250.00,90.79
1249.00,90.86
1248.00,90.94
1247.00,91.02
1246.00,91.11
1245.00,91.20
1244.00,91.29
1243.00,91.39
1242.00,91.49
1241.00,91.60
1240.00,91.70
1239.00,91.82
1238.00,91.93
1237.00,92.05
1236.00,92.18
1235.00,92.32
1234.00,92.47
1233.00,92.61
1232.00,92.76
1231.00,92.93
1230.00,93.12
1229.00,93.33
1228.00,93.55
1227.00,93.79
1226.00,94.06
1225.00,94.33
1224.00,94.62
1223.00,94.92
1222.00,95.24
1221.00,95.56
1220.00,95.89
1219.00,96.22
1218.00,96.55
1217.00,96.86
1216.00,97.16
1215.00,97.43
1214.00,97.68
1213.00,97.89
1212.00,98.08
1211.00,98.24
1210.00,98.38
1209.00,98.49
1208.00,98.56
1207.00,98.61
1206.00,98.62
1205.00,98.60
1204.00,98.57
1203.00,98.54
1202.00,98.50
1201.00,98.44
1200.00,98.39
1199.00,98.34
1198.00,98.31
1197.00,98.28
1196.00,98.26
1195.00,98.25
1194.00,98.25
1193.00,98.26
1192.00,98.27
1191.00,98.30
1190.00,98.33
1189.00,98.38
1188.00,98.43
1187.00,98.48
1186.00,98.55
1185.00,98.63
1184.00,98.71
1183.00,98.81
1182.00,98.92
1181.00,99.03
1180.00,99.14
1179.00,99.24
1178.00,99.32
1177.00,99.37
1176.00,99.38
1175.00,99.35
1174.00,99.26
1173.00,99.10
1172.00,98.87
1171.00,98.56
1170.00,98.16
1169.00,97.67
1168.00,97.10
1167.00,96.44
1166.00,95.70
1165.00,94.87
1164.00,93.99
1163.00,93.07
1162.00,92.13
1161.00,91.17
1160.00,90.20
1159.00,89.24
1158.00,88.31
1157.00,87.42
1156.00,86.57
1155.00,85.79
1154.00,85.08
1153.00,84.44
1152.00,83.88
1151.00,83.42
1150.00,83.07
1149.00,82.82
1148.00,82.66
1147.00,82.60
1146.00,82.65
1145.00,82.76
1144.00,82.93
1143.00,83.16
1142.00,83.42
1141.00,83.69
1140.00,83.94
1139.00,84.17
1138.00,84.35
1137.00,84.48
1136.00,84.56
1135.00,84.60
1134.00,84.61
1133.00,84.58
1132.00,84.53
1131.00,84.46
1130.00,84.38
1129.00,84.28
1128.00,84.14
1127.00,84.00
1126.00,83.84
1125.00,83.64
1124.00,83.39
1123.00,83.11
1122.00,82.77
1121.00,82.37
1120.00,81.91
1119.00,81.40
1118.00,80.82
1117.00,80.17
1116.00,79.44
1115.00,78.66
1114.00,77.81
1113.00,76.90
1112.00,75.94
1111.00,74.97
1110.00,74.00
1109.00,73.06
1108.00,72.14
1107.00,71.31
1106.00,70.58
1105.00,69.94
1104.00,69.41
1103.00,69.02
1102.00,68.78
1101.00,68.65
1100.00,68.61
1099.00,68.68
1098.00,68.81
1097.00,68.95
1096.00,69.04
1095.00,69.06
1094.00,68.96
1093.00,68.68
1092.00,68.21
1091.00,67.58
1090.00,66.78
1089.00,65.81
1088.00,64.71
1087.00,63.53
1086.00,62.31
1085.00,61.05
1084.00,59.78
1083.00,58.57
1082.00,57.42
1081.00,56.35
1080.00,55.36
1079.00,54.50
1078.00,53.77
1077.00,53.14
1076.00,52.59
1075.00,52.15
1074.00,51.78
1073.00,51.44
1072.00,51.09
1071.00,50.73
1070.00,50.36
1069.00,49.92
1068.00,49.41
1067.00,48.88
1066.00,48.32
1065.00,47.71
1064.00,47.06
1063.00,46.40
1062.00,45.74
1061.00,45.06
1060.00,44.36
1059.00,43.69
1058.00,43.06
1057.00,42.44
1056.00,41.84
1055.00,41.30
1054.00,40.85
1053.00,40.44
1052.00,40.11
1051.00,39.91
1050.00,39.81
1049.00,39.77
1048.00,39.76
1047.00,39.79
1046.00,39.83
1045.00,39.83
1044.00,39.76
1043.00,39.65
1042.00,39.49
1041.00,39.24
1040.00,38.90
1039.00,38.50
1038.00,38.06
1037.00,37.56
1036.00,36.99
1035.00,36.42
1034.00,35.84
1033.00,35.25
1032.00,34.65
1031.00,34.11
1030.00,33.64
1029.00,33.22
1028.00,32.85
1027.00,32.57
1026.00,32.38
1025.00,32.28
1024.00,32.23
1023.00,32.27
1022.00,32.38
1021.00,32.53
1020.00,32.69
1019.00,32.89
1018.00,33.10
1017.00,33.29
1016.00,33.46
1015.00,33.66
1014.00,33.92
1013.00,34.21
1012.00,34.54
1011.00,34.98
1010.00,35.56
1009.00,36.27
1008.00,37.13
1007.00,38.17
1006.00,39.41
1005.00,40.79
1004.00,42.30
1003.00,43.91
1002.00,45.59
1001.00,47.22
1000.00,48.76
999.00,50.16
998.00,51.40
997.00,52.43
996.00,53.26
995.00,53.91
994.00,54.44
993.00,54.84
992.00,55.19
991.00,55.55
990.00,55.97
989.00,56.43
988.00,56.94
987.00,57.51
986.00,58.12
985.00,58.72
984.00,59.29
983.00,59.86
982.00,60.44
981.00,61.05
980.00,61.71
979.00,62.51
978.00,63.50
977.00,64.66
976.00,66.00
975.00,67.50
974.00,69.07
973.00,70.60
972.00,71.99
971.00,73.20
970.00,74.19
969.00,74.95
968.00,75.53
967.00,76.04
966.00,76.58
965.00,77.24
964.00,78.12
963.00,79.29
962.00,80.75
961.00,82.46
960.00,84.33
959.00,86.29
958.00,88.24
957.00,90.08
956.00,91.76
955.00,93.25
954.00,94.54
953.00,95.62
952.00,96.50
951.00,97.23
950.00,97.83
949.00,98.31
948.00,98.68
947.00,98.98
946.00,99.20
945.00,99.33
944.00,99.40
943.00,99.42
942.00,99.40
941.00,99.33
940.00,99.23
939.00,99.11
938.00,98.96
937.00,98.79
936.00,98.58
935.00,98.35
934.00,98.10
933.00,97.83
932.00,97.53
931.00,97.19
930.00,96.80
929.00,96.36
928.00,95.89
927.00,95.39
926.00,94.88
925.00,94.37
924.00,93.87
923.00,93.41
922.00,93.00
921.00,92.68
920.00,92.47
919.00,92.38
918.00,92.44
917.00,92.62
916.00,92.91
915.00,93.30
914.00,93.76
913.00,94.25
912.00,94.74
911.00,95.23
910.00,95.67
909.00,96.05
908.00,96.34
907.00,96.54
906.00,96.65
905.00,96.68
904.00,96.64
903.00,96.57
902.00,96.49
901.00,96.39
900.00,96.31
899.00,96.26
898.00,96.26
897.00,96.31
896.00,96.41
895.00,96.56
894.00,96.76
893.00,96.98
892.00,97.25
891.00,97.56
890.00,97.91
889.00,98.27
888.00,98.61
887.00,98.94
886.00,99.24
885.00,99.48
884.00,99.62
883.00,99.67
882.00,99.63
881.00,99.46
880.00,99.19
879.00,98.82
878.00,98.36
877.00,97.82
876.00,97.19
875.00,96.51
874.00,95.82
873.00,95.13
872.00,94.46
871.00,93.85
870.00,93.33
869.00,92.91
868.00,92.58
867.00,92.37
866.00,92.29
865.00,92.33
864.00,92.49
863.00,92.77
862.00,93.17
861.00,93.64
860.00,94.17
859.00,94.77
858.00,95.41
857.00,96.05
856.00,96.65
855.00,97.21
854.00,97.72
853.00,98.16
852.00,98.52
851.00,98.81
850.00,99.04
849.00,99.20
848.00,99.30
847.00,99.36
846.00,99.40
845.00,99.40
844.00,99.38
843.00,99.35
842.00,99.33
841.00,99.29
840.00,99.25
839.00,99.20
838.00,99.15
837.00,99.08
836.00,98.98
835.00,98.85
834.00,98.66
833.00,98.39
832.00,98.02
831.00,97.55
830.00,97.00
829.00,96.33
828.00,95.55
827.00,94.68
826.00,93.74
825.00,92.72
824.00,91.65
823.00,90.61
822.00,89.68
821.00,88.88
820.00,88.25
819.00,87.85
818.00,87.69
817.00,87.77
816.00,88.08
815.00,88.63
814.00,89.39
813.00,90.30
812.00,91.31
811.00,92.38
810.00,93.47
809.00,94.48
808.00,95.40
807.00,96.24
806.00,97.01
805.00,97.65
804.00,98.18
803.00,98.61
802.00,98.98
801.00,99.26
800.00,99.45
799.00,99.57
798.00,99.63
797.00,99.61
796.00,99.51
795.00,99.35
794.00,99.11
793.00,98.73
792.00,98.20
791.00,97.53
790.00,96.71
789.00,95.75
788.00,94.65
787.00,93.48
786.00,92.28
785.00,91.06
784.00,89.86
783.00,88.76
782.00,87.79
781.00,86.98
780.00,86.33
779.00,85.88
778.00,85.65
777.00,85.58
776.00,85.68
775.00,85.95
774.00,86.39
773.00,86.92
772.00,87.50
771.00,88.17
770.00,88.92
769.00,89.71
768.00,90.50
767.00,91.28
766.00,92.03
765.00,92.73
764.00,93.38
763.00,94.02
762.00,94.64
761.00,95.20
760.00,95.68
759.00,96.12
758.00,96.52
757.00,96.87
756.00,97.17
755.00,97.43
754.00,97.67
753.00,97.85
752.00,97.98
751.00,98.12
750.00,98.27
749.00,98.41
748.00,98.52
747.00,98.63
746.00,98.76
745.00,98.87
744.00,98.93
743.00,98.98
742.00,99.05
741.00,99.10
740.00,99.13
739.00,99.16
738.00,99.23
737.00,99.27
736.00,99.29
735.00,99.29
734.00,99.30
733.00,99.28
732.00,99.25
731.00,99.25
730.00,99.26
729.00,99.25
728.00,99.21
727.00,99.19
726.00,99.19
725.00,99.16
724.00,99.07
723.00,98.97
722.00,98.89
721.00,98.78
720.00,98.63
719.00,98.47
718.00,98.32
717.00,98.10
716.00,97.81
715.00,97.53
714.00,97.28
713.00,97.02
712.00,96.71
711.00,96.40
710.00,96.12
709.00,95.82
708.00,95.54
707.00,95.32
706.00,95.19
705.00,95.08
704.00,94.94
703.00,94.88
702.00,94.91
701.00,95.00
700.00,95.10
699.00,95.23
698.00,95.39
697.00,95.53
696.00,95.64
695.00,95.79
694.00,96.02
693.00,96.25
692.00,96.43
691.00,96.62
690.00,96.84
689.00,97.02
688.00,97.13
687.00,97.26
686.00,97.43
685.00,97.54
684.00,97.59
683.00,97.70
682.00,97.88
681.00,98.03
680.00,98.11
679.00,98.21
678.00,98.36
677.00,98.47
676.00,98.48
675.00,98.48
674.00,98.54
673.00,98.60
672.00,98.63
671.00,98.71
670.00,98.85
669.00,98.88
668.00,98.72
667.00,98.66
666.00,98.79
665.00,98.91
664.00,98.91
663.00,98.90
662.00,99.00
661.00,99.12
660.00,99.18
659.00,99.22
658.00,99.31
657.00,99.39
656.00,99.41
655.00,99.43
654.00,99.43
653.00,99.28
652.00,98.98
651.00,98.75
650.00,98.65
