Created as New Dataset,Sample 014 By iruser Date Tuesday, March 24 2026
cm-1,%T
4200.00,100.22
4199.00,100.22
4198.00,100.22
4197.00,100.21
4196.00,100.21
4195.00,100.21
4194.00,100.22
4193.00,100.22
4192.00,100.22
4191.00,100.22
4190.00,100.22
4189.00,100.22
4188.00,100.22
4187.00,100.22
4186.00,100.22
4185.00,100.23
4184.00,100.23
4183.00,100.23
4182.00,100.22
4181.00,100.22
4180.00,100.22
4179.00,100.22
4178.00,100.21
4177.00,100.20
4176.00,100.20
4175.00,100.20
4174.00,100.20
4173.00,100.21
4172.00,100.21
4171.00,100.20
4170.00,100.20
4169.00,100.20
4168.00,100.20
4167.00,100.20
4166.00,100.20
4165.00,100.20
4164.00,100.20
4163.00,100.20
4162.00,100.20
4161.00,100.20
4160.00,100.20
4159.00,100.20
4158.00,100.19
4157.00,100.19
4156.00,100.19
4155.00,100.19
4154.00,100.19
4153.00,100.19
4152.00,100.19
4151.00,100.18
4150.00,100.18
4149.00,100.18
4148.00,100.18
4147.00,100.18
4146.00,100.18
4145.00,100.18
4144.00,100.17
4143.00,100.17
4142.00,100.17
4141.00,100.17
4140.00,100.17
4139.00,100.18
4138.00,100.18
4137.00,100.18
4136.00,100.17
4135.00,100.17
4134.00,100.16
4133.00,100.17
4132.00,100.17
4131.00,100.17
4130.00,100.17
4129.00,100.17
4128.00,100.16
4127.00,100.16
4126.00,100.16
4125.00,100.15
4124.00,100.15
4123.00,100.16
4122.00,100.16
4121.00,100.16
4120.00,100.16
4119.00,100.16
4118.00,100.16
4117.00,100.16
4116.00,100.16
4115.00,100.15
4114.00,100.14
4113.00,100.14
4112.00,100.13
4111.00,100.13
4110.00,100.12
4109.00,100.12
4108.00,100.12
4107.00,100.12
4106.00,100.13
4105.00,100.14
4104.00,100.14
4103.00,100.14
4102.00,100.13
4101.00,100.13
4100.00,100.13
4099.00,100.13
4098.00,100.13
4097.00,100.13
4096.00,100.13
4095.00,100.13
4094.00,100.13
4093.00,100.13
4092.00,100.12
4091.00,100.11
4090.00,100.10
4089.00,100.10
4088.00,100.10
4087.00,100.11
4086.00,100.11
4085.00,100.12
4084.00,100.12
4083.00,100.11
4082.00,100.11
4081.00,100.11
4080.00,100.11
4079.00,100.11
4078.00,100.11
4077.00,100.10
4076.00,100.09
4075.00,100.09
4074.00,100.08
4073.00,100.08
4072.00,100.08
4071.00,100.08
4070.00,100.08
4069.00,100.08
4068.00,100.08
4067.00,100.08
4066.00,100.07
4065.00,100.07
4064.00,100.06
4063.00,100.06
4062.00,100.06
4061.00,100.06
4060.00,100.06
4059.00,100.06
4058.00,100.06
4057.00,100.06
4056.00,100.06
4055.00,100.06
4054.00,100.06
4053.00,100.05
4052.00,100.04
4051.00,100.04
4050.00,100.03
4049.00,100.04
4048.00,100.04
4047.00,100.04
4046.00,100.04
4045.00,100.04
4044.00,100.03
4043.00,100.03
4042.00,100.03
4041.00,100.02
4040.00,100.03
4039.00,100.03
4038.00,100.03
4037.00,100.03
4036.00,100.03
4035.00,100.03
4034.00,100.03
4033.00,100.02
4032.00,100.02
4031.00,100.01
4030.00,100.01
4029.00,100.00
4028.00,100.00
4027.00,100.00
4026.00,100.00
4025.00,100.00
4024.00,100.00
4023.00,100.00
4022.00,100.00
4021.00,100.00
4020.00,100.00
4019.00,100.00
4018.00,100.01
4017.00,100.01
4016.00,100.01
4015.00,100.01
4014.00,100.01
4013.00,100.01
4012.00,100.00
4011.00,100.00
4010.00,100.00
4009.00,100.00
4008.00,100.00
4007.00,100.00
4006.00,100.00
4005.00,100.00
4004.00,100.00
4003.00,100.00
4002.00,100.00
4001.00,100.00
4000.00,100.00
3999.00,100.00
3998.00,100.00
3997.00,100.01
3996.00,100.01
3995.00,100.01
3994.00,100.01
3993.00,100.01
3992.00,100.01
3991.00,100.01
3990.00,100.01
3989.00,100.01
3988.00,100.01
3987.00,100.02
3986.00,100.02
3985.00,100.02
3984.00,100.02
3983.00,100.02
3982.00,100.01
3981.00,100.02
3980.00,100.02
3979.00,100.02
3978.00,100.02
3977.00,100.03
3976.00,100.03
3975.00,100.03
3974.00,100.03
3973.00,100.04
3972.00,100.04
3971.00,100.04
3970.00,100.04
3969.00,100.04
3968.00,100.04
3967.00,100.05
3966.00,100.05
3965.00,100.05
3964.00,100.05
3963.00,100.05
3962.00,100.05
3961.00,100.05
3960.00,100.05
3959.00,100.06
3958.00,100.06
3957.00,100.06
3956.00,100.06
3955.00,100.06
3954.00,100.06
3953.00,100.06
3952.00,100.06
3951.00,100.06
3950.00,100.06
3949.00,100.05
3948.00,100.05
3947.00,100.04
3946.00,100.04
3945.00,100.05
3944.00,100.06
3943.00,100.07
3942.00,100.08
3941.00,100.08
3940.00,100.08
3939.00,100.08
3938.00,100.08
3937.00,100.08
3936.00,100.08
3935.00,100.08
3934.00,100.09
3933.00,100.09
3932.00,100.10
3931.00,100.10
3930.00,100.10
3929.00,100.10
3928.00,100.10
3927.00,100.09
3926.00,100.09
3925.00,100.10
3924.00,100.11
3923.00,100.11
3922.00,100.11
3921.00,100.11
3920.00,100.11
3919.00,100.11
3918.00,100.11
3917.00,100.12
3916.00,100.12
3915.00,100.12
3914.00,100.12
3913.00,100.12
3912.00,100.13
3911.00,100.13
3910.00,100.13
3909.00,100.13
3908.00,100.12
3907.00,100.11
3906.00,100.11
3905.00,100.11
3904.00,100.12
3903.00,100.13
3902.00,100.14
3901.00,100.14
3900.00,100.15
3899.00,100.15
3898.00,100.15
3897.00,100.15
3896.00,100.14
3895.00,100.14
3894.00,100.15
3893.00,100.16
3892.00,100.17
3891.00,100.17
3890.00,100.17
3889.00,100.15
3888.00,100.14
3887.00,100.14
3886.00,100.14
3885.00,100.14
3884.00,100.14
3883.00,100.15
3882.00,100.16
3881.00,100.17
3880.00,100.19
3879.00,100.19
3878.00,100.18
3877.00,100.17
3876.00,100.17
3875.00,100.18
3874.00,100.18
3873.00,100.18
3872.00,100.17
3871.00,100.17
3870.00,100.17
3869.00,100.17
3868.00,100.16
3867.00,100.16
3866.00,100.16
3865.00,100.17
3864.00,100.19
3863.00,100.20
3862.00,100.21
3861.00,100.21
3860.00,100.20
3859.00,100.19
3858.00,100.18
3857.00,100.16
3856.00,100.15
3855.00,100.15
3854.00,100.16
3853.00,100.17
3852.00,100.17
3851.00,100.17
3850.00,100.19
3849.00,100.20
3848.00,100.21
3847.00,100.21
3846.00,100.21
3845.00,100.21
3844.00,100.21
3843.00,100.21
3842.00,100.20
3841.00,100.20
3840.00,100.20
3839.00,100.21
3838.00,100.21
3837.00,100.20
3836.00,100.20
3835.00,100.20
3834.00,100.21
3833.00,100.22
3832.00,100.22
3831.00,100.23
3830.00,100.22
3829.00,100.22
3828.00,100.22
3827.00,100.22
3826.00,100.22
3825.00,100.22
3824.00,100.21
3823.00,100.21
3822.00,100.22
3821.00,100.23
3820.00,100.23
3819.00,100.22
3818.00,100.21
3817.00,100.21
3816.00,100.20
3815.00,100.19
3814.00,100.19
3813.00,100.19
3812.00,100.20
3811.00,100.21
3810.00,100.21
3809.00,100.21
3808.00,100.21
3807.00,100.21
3806.00,100.20
3805.00,100.19
3804.00,100.18
3803.00,100.18
3802.00,100.18
3801.00,100.19
3800.00,100.19
3799.00,100.20
3798.00,100.21
3797.00,100.22
3796.00,100.22
3795.00,100.22
3794.00,100.22
3793.00,100.22
3792.00,100.22
3791.00,100.22
3790.00,100.21
3789.00,100.20
3788.00,100.19
3787.00,100.19
3786.00,100.18
3785.00,100.19
3784.00,100.19
3783.00,100.19
3782.00,100.19
3781.00,100.19
3780.00,100.19
3779.00,100.19
3778.00,100.19
3777.00,100.19
3776.00,100.19
3775.00,100.19
3774.00,100.18
3773.00,100.17
3772.00,100.17
3771.00,100.18
3770.00,100.18
3769.00,100.18
3768.00,100.18
3767.00,100.18
3766.00,100.18
3765.00,100.17
3764.00,100.16
3763.00,100.15
3762.00,100.15
3761.00,100.15
3760.00,100.15
3759.00,100.15
3758.00,100.16
3757.00,100.15
3756.00,100.15
3755.00,100.14
3754.00,100.12
3753.00,100.11
3752.00,100.09
3751.00,100.08
3750.00,100.07
3749.00,100.07
3748.00,100.06
3747.00,100.07
3746.00,100.08
3745.00,100.08
3744.00,100.08
3743.00,100.08
3742.00,100.08
3741.00,100.08
3740.00,100.08
3739.00,100.07
3738.00,100.05
3737.00,100.04
3736.00,100.05
3735.00,100.07
3734.00,100.07
3733.00,100.07
3732.00,100.06
3731.00,100.05
3730.00,100.03
3729.00,100.02
3728.00,100.01
3727.00,100.00
3726.00,100.00
3725.00,100.00
3724.00,100.00
3723.00,100.00
3722.00,100.00
3721.00,100.00
3720.00,100.00
3719.00,99.99
3718.00,99.99
3717.00,99.98
3716.00,99.96
3715.00,99.95
3714.00,99.93
3713.00,99.91
3712.00,99.90
3711.00,99.90
3710.00,99.90
3709.00,99.89
3708.00,99.88
3707.00,99.87
3706.00,99.85
3705.00,99.84
3704.00,99.84
3703.00,99.84
3702.00,99.83
3701.00,99.82
3700.00,99.80
3699.00,99.78
3698.00,99.75
3697.00,99.73
3696.00,99.71
3695.00,99.68
3694.00,99.66
3693.00,99.64
3692.00,99.63
3691.00,99.62
3690.00,99.60
3689.00,99.57
3688.00,99.53
3687.00,99.48
3686.00,99.45
3685.00,99.42
3684.00,99.39
3683.00,99.36
3682.00,99.32
3681.00,99.28
3680.00,99.25
3679.00,99.21
3678.00,99.16
3677.00,99.11
3676.00,99.07
3675.00,99.03
3674.00,98.98
3673.00,98.93
3672.00,98.87
3671.00,98.82
3670.00,98.77
3669.00,98.71
3668.00,98.65
3667.00,98.59
3666.00,98.52
3665.00,98.46
3664.00,98.40
3663.00,98.33
3662.00,98.25
3661.00,98.18
3660.00,98.10
3659.00,98.03
3658.00,97.94
3657.00,97.85
3656.00,97.77
3655.00,97.69
3654.00,97.62
3653.00,97.55
3652.00,97.47
3651.00,97.38
3650.00,97.27
3649.00,97.16
3648.00,97.06
3647.00,96.96
3646.00,96.86
3645.00,96.76
3644.00,96.67
3643.00,96.57
3642.00,96.47
3641.00,96.38
3640.00,96.28
3639.00,96.17
3638.00,96.07
3637.00,95.96
3636.00,95.85
3635.00,95.74
3634.00,95.63
3633.00,95.52
3632.00,95.41
3631.00,95.29
3630.00,95.14
3629.00,94.99
3628.00,94.85
3627.00,94.73
3626.00,94.62
3625.00,94.53
3624.00,94.43
3623.00,94.33
3622.00,94.23
3621.00,94.10
3620.00,93.97
3619.00,93.82
3618.00,93.68
3617.00,93.54
3616.00,93.40
3615.00,93.27
3614.00,93.15
3613.00,93.02
3612.00,92.89
3611.00,92.76
3610.00,92.61
3609.00,92.45
3608.00,92.31
3607.00,92.17
3606.00,92.04
3605.00,91.91
3604.00,91.77
3603.00,91.64
3602.00,91.49
3601.00,91.35
3600.00,91.20
3599.00,91.05
3598.00,90.90
3597.00,90.74
3596.00,90.58
3595.00,90.42
3594.00,90.26
3593.00,90.12
3592.00,89.98
3591.00,89.83
3590.00,89.67
3589.00,89.49
3588.00,89.30
3587.00,89.11
3586.00,88.94
3585.00,88.78
3584.00,88.63
3583.00,88.47
3582.00,88.32
3581.00,88.16
3580.00,88.00
3579.00,87.84
3578.00,87.67
3577.00,87.49
3576.00,87.32
3575.00,87.14
3574.00,86.96
3573.00,86.79
3572.00,86.62
3571.00,86.46
3570.00,86.29
3569.00,86.10
3568.00,85.90
3567.00,85.69
3566.00,85.50
3565.00,85.32
3564.00,85.14
3563.00,84.98
3562.00,84.81
3561.00,84.63
3560.00,84.46
3559.00,84.28
3558.00,84.11
3557.00,83.93
3556.00,83.75
3555.00,83.57
3554.00,83.38
3553.00,83.19
3552.00,83.00
3551.00,82.82
3550.00,82.65
3549.00,82.47
3548.00,82.28
3547.00,82.08
3546.00,81.88
3545.00,81.69
3544.00,81.51
3543.00,81.33
3542.00,81.16
3541.00,80.99
3540.00,80.81
3539.00,80.63
3538.00,80.45
3537.00,80.26
3536.00,80.07
3535.00,79.88
3534.00,79.70
3533.00,79.52
3532.00,79.34
3531.00,79.16
3530.00,78.98
3529.00,78.80
3528.00,78.61
3527.00,78.42
3526.00,78.23
3525.00,78.05
3524.00,77.86
3523.00,77.67
3522.00,77.49
3521.00,77.31
3520.00,77.12
3519.00,76.94
3518.00,76.76
3517.00,76.57
3516.00,76.39
3515.00,76.21
3514.00,76.04
3513.00,75.87
3512.00,75.69
3511.00,75.51
3510.00,75.33
3509.00,75.14
3508.00,74.96
3507.00,74.79
3506.00,74.61
3505.00,74.43
3504.00,74.24
3503.00,74.05
3502.00,73.87
3501.00,73.69
3500.00,73.52
3499.00,73.35
3498.00,73.18
3497.00,73.01
3496.00,72.83
3495.00,72.65
3494.00,72.48
3493.00,72.30
3492.00,72.14
3491.00,71.96
3490.00,71.79
3489.00,71.61
3488.00,71.43
3487.00,71.25
3486.00,71.08
3485.00,70.91
3484.00,70.75
3483.00,70.58
3482.00,70.40
3481.00,70.22
3480.00,70.05
3479.00,69.89
3478.00,69.72
3477.00,69.56
3476.00,69.39
3475.00,69.22
3474.00,69.05
3473.00,68.87
3472.00,68.70
3471.00,68.53
3470.00,68.37
3469.00,68.20
3468.00,68.04
3467.00,67.87
3466.00,67.71
3465.00,67.54
3464.00,67.38
3463.00,67.21
3462.00,67.05
3461.00,66.89
3460.00,66.73
3459.00,66.57
3458.00,66.41
3457.00,66.24
3456.00,66.08
3455.00,65.92
3454.00,65.76
3453.00,65.60
3452.00,65.44
3451.00,65.29
3450.00,65.13
3449.00,64.97
3448.00,64.81
3447.00,64.64
3446.00,64.48
3445.00,64.33
3444.00,64.18
3443.00,64.03
3442.00,63.88
3441.00,63.72
3440.00,63.56
3439.00,63.40
3438.00,63.24
3437.00,63.08
3436.00,62.93
3435.00,62.78
3434.00,62.63
3433.00,62.48
3432.00,62.33
3431.00,62.19
3430.00,62.04
3429.00,61.89
3428.00,61.75
3427.00,61.62
3426.00,61.48
3425.00,61.34
3424.00,61.20
3423.00,61.05
3422.00,60.90
3421.00,60.76
3420.00,60.61
3419.00,60.47
3418.00,60.34
3417.00,60.21
3416.00,60.08
3415.00,59.94
3414.00,59.79
3413.00,59.64
3412.00,59.51
3411.00,59.37
3410.00,59.25
3409.00,59.12
3408.00,59.00
3407.00,58.87
3406.00,58.74
3405.00,58.61
3404.00,58.47
3403.00,58.34
3402.00,58.21
3401.00,58.09
3400.00,57.97
3399.00,57.85
3398.00,57.74
3397.00,57.62
3396.00,57.50
3395.00,57.38
3394.00,57.26
3393.00,57.14
3392.00,57.02
3391.00,56.92
3390.00,56.82
3389.00,56.72
3388.00,56.62
3387.00,56.51
3386.00,56.40
3385.00,56.30
3384.00,56.19
3383.00,56.08
3382.00,55.98
3381.00,55.87
3380.00,55.76
3379.00,55.66
3378.00,55.57
3377.00,55.47
3376.00,55.38
3375.00,55.30
3374.00,55.21
3373.00,55.11
3372.00,55.02
3371.00,54.93
3370.00,54.84
3369.00,54.75
3368.00,54.67
3367.00,54.59
3366.00,54.51
3365.00,54.42
3364.00,54.34
3363.00,54.26
3362.00,54.18
3361.00,54.10
3360.00,54.03
3359.00,53.96
3358.00,53.89
3357.00,53.81
3356.00,53.74
3355.00,53.66
3354.00,53.59
3353.00,53.52
3352.00,53.45
3351.00,53.39
3350.00,53.33
3349.00,53.27
3348.00,53.21
3347.00,53.15
3346.00,53.08
3345.00,53.02
3344.00,52.96
3343.00,52.91
3342.00,52.86
3341.00,52.81
3340.00,52.76
3339.00,52.71
3338.00,52.66
3337.00,52.62
3336.00,52.57
3335.00,52.52
3334.00,52.47
3333.00,52.42
3332.00,52.38
3331.00,52.33
3330.00,52.28
3329.00,52.23
3328.00,52.18
3327.00,52.13
3326.00,52.09
3325.00,52.06
3324.00,52.02
3323.00,51.99
3322.00,51.95
3321.00,51.91
3320.00,51.88
3319.00,51.84
3318.00,51.80
3317.00,51.76
3316.00,51.73
3315.00,51.69
3314.00,51.66
3313.00,51.63
3312.00,51.59
3311.00,51.56
3310.00,51.53
3309.00,51.49
3308.00,51.45
3307.00,51.42
3306.00,51.39
3305.00,51.37
3304.00,51.35
3303.00,51.33
3302.00,51.31
3301.00,51.29
3300.00,51.26
3299.00,51.23
3298.00,51.20
3297.00,51.18
3296.00,51.16
3295.00,51.14
3294.00,51.12
3293.00,51.10
3292.00,51.08
3291.00,51.06
3290.00,51.05
3289.00,51.03
3288.00,51.02
3287.00,51.00
3286.00,50.99
3285.00,50.98
3284.00,50.97
3283.00,50.96
3282.00,50.95
3281.00,50.93
3280.00,50.92
3279.00,50.91
3278.00,50.90
3277.00,50.88
3276.00,50.88
3275.00,50.87
3274.00,50.87
3273.00,50.86
3272.00,50.86
3271.00,50.85
3270.00,50.86
3269.00,50.86
3268.00,50.87
3267.00,50.87
3266.00,50.87
3265.00,50.88
3264.00,50.89
3263.00,50.90
3262.00,50.91
3261.00,50.92
3260.00,50.94
3259.00,50.95
3258.00,50.96
3257.00,50.97
3256.00,50.98
3255.00,50.99
3254.00,51.01
3253.00,51.03
3252.00,51.06
3251.00,51.08
3250.00,51.11
3249.00,51.13
3248.00,51.15
3247.00,51.17
3246.00,51.21
3245.00,51.24
3244.00,51.28
3243.00,51.32
3242.00,51.36
3241.00,51.40
3240.00,51.43
3239.00,51.47
3238.00,51.51
3237.00,51.55
3236.00,51.59
3235.00,51.63
3234.00,51.68
3233.00,51.74
3232.00,51.80
3231.00,51.86
3230.00,51.92
3229.00,51.98
3228.00,52.04
3227.00,52.10
3226.00,52.17
3225.00,52.23
3224.00,52.29
3223.00,52.35
3222.00,52.42
3221.00,52.49
3220.00,52.57
3219.00,52.65
3218.00,52.73
3217.00,52.81
3216.00,52.89
3215.00,52.98
3214.00,53.06
3213.00,53.14
3212.00,53.23
3211.00,53.32
3210.00,53.41
3209.00,53.50
3208.00,53.60
3207.00,53.69
3206.00,53.79
3205.00,53.89
3204.00,53.99
3203.00,54.09
3202.00,54.20
3201.00,54.31
3200.00,54.42
3199.00,54.53
3198.00,54.64
3197.00,54.75
3196.00,54.86
3195.00,54.97
3194.00,55.09
3193.00,55.20
3192.00,55.32
3191.00,55.45
3190.00,55.58
3189.00,55.71
3188.00,55.83
3187.00,55.96
3186.00,56.09
3185.00,56.22
3184.00,56.35
3183.00,56.49
3182.00,56.63
3181.00,56.77
3180.00,56.91
3179.00,57.05
3178.00,57.19
3177.00,57.33
3176.00,57.47
3175.00,57.62
3174.00,57.76
3173.00,57.91
3172.00,58.06
3171.00,58.21
3170.00,58.37
3169.00,58.52
3168.00,58.68
3167.00,58.84
3166.00,59.00
3165.00,59.15
3164.00,59.32
3163.00,59.48
3162.00,59.64
3161.00,59.81
3160.00,59.98
3159.00,60.14
3158.00,60.30
3157.00,60.46
3156.00,60.63
3155.00,60.79
3154.00,60.96
3153.00,61.13
3152.00,61.30
3151.00,61.48
3150.00,61.66
3149.00,61.84
3148.00,62.02
3147.00,62.20
3146.00,62.38
3145.00,62.56
3144.00,62.74
3143.00,62.92
3142.00,63.10
3141.00,63.28
3140.00,63.46
3139.00,63.65
3138.00,63.83
3137.00,64.02
3136.00,64.21
3135.00,64.39
3134.00,64.57
3133.00,64.76
3132.00,64.94
3131.00,65.12
3130.00,65.31
3129.00,65.50
3128.00,65.69
3127.00,65.88
3126.00,66.07
3125.00,66.26
3124.00,66.46
3123.00,66.65
3122.00,66.83
3121.00,67.02
3120.00,67.22
3119.00,67.41
3118.00,67.60
3117.00,67.79
3116.00,67.99
3115.00,68.18
3114.00,68.38
3113.00,68.57
3112.00,68.77
3111.00,68.97
3110.00,69.16
3109.00,69.35
3108.00,69.54
3107.00,69.73
3106.00,69.93
3105.00,70.12
3104.00,70.31
3103.00,70.51
3102.00,70.70
3101.00,70.90
3100.00,71.09
3099.00,71.29
3098.00,71.48
3097.00,71.67
3096.00,71.86
3095.00,72.05
3094.00,72.24
3093.00,72.43
3092.00,72.63
3091.00,72.82
3090.00,73.02
3089.00,73.21
3088.00,73.40
3087.00,73.59
3086.00,73.77
3085.00,73.96
3084.00,74.15
3083.00,74.33
3082.00,74.51
3081.00,74.70
3080.00,74.88
3079.00,75.08
3078.00,75.27
3077.00,75.47
3076.00,75.66
3075.00,75.85
3074.00,76.03
3073.00,76.21
3072.00,76.39
3071.00,76.57
3070.00,76.75
3069.00,76.93
3068.00,77.11
3067.00,77.29
3066.00,77.47
3065.00,77.65
3064.00,77.83
3063.00,78.02
3062.00,78.19
3061.00,78.37
3060.00,78.54
3059.00,78.72
3058.00,78.89
3057.00,79.06
3056.00,79.23
3055.00,79.40
3054.00,79.56
3053.00,79.73
3052.00,79.90
3051.00,80.07
3050.00,80.23
3049.00,80.40
3048.00,80.56
3047.00,80.73
3046.00,80.89
3045.00,81.05
3044.00,81.21
3043.00,81.36
3042.00,81.52
3041.00,81.68
3040.00,81.84
3039.00,82.00
3038.00,82.15
3037.00,82.30
3036.00,82.44
3035.00,82.59
3034.00,82.74
3033.00,82.88
3032.00,83.03
3031.00,83.17
3030.00,83.32
3029.00,83.46
3028.00,83.60
3027.00,83.74
3026.00,83.87
3025.00,84.00
3024.00,84.13
3023.00,84.25
3022.00,84.38
3021.00,84.50
3020.00,84.63
3019.00,84.76
3018.00,84.88
3017.00,84.99
3016.00,85.10
3015.00,85.20
3014.00,85.30
3013.00,85.40
3012.00,85.49
3011.00,85.59
3010.00,85.68
3009.00,85.76
3008.00,85.85
3007.00,85.94
3006.00,86.02
3005.00,86.10
3004.00,86.17
3003.00,86.23
3002.00,86.29
3001.00,86.35
3000.00,86.40
2999.00,86.44
2998.00,86.48
2997.00,86.50
2996.00,86.53
2995.00,86.55
2994.00,86.57
2993.00,86.58
2992.00,86.58
2991.00,86.58
2990.00,86.57
2989.00,86.54
2988.00,86.52
2987.00,86.49
2986.00,86.46
2985.00,86.42
2984.00,86.38
2983.00,86.32
2982.00,86.27
2981.00,86.22
2980.00,86.16
2979.00,86.11
2978.00,86.05
2977.00,85.99
2976.00,85.92
2975.00,85.86
2974.00,85.79
2973.00,85.73
2972.00,85.67
2971.00,85.61
2970.00,85.55
2969.00,85.49
2968.00,85.41
2967.00,85.34
2966.00,85.26
2965.00,85.17
2964.00,85.08
2963.00,84.98
2962.00,84.87
2961.00,84.75
2960.00,84.62
2959.00,84.49
2958.00,84.36
2957.00,84.21
2956.00,84.06
2955.00,83.90
2954.00,83.73
2953.00,83.56
2952.00,83.39
2951.00,83.22
2950.00,83.05
2949.00,82.88
2948.00,82.71
2947.00,82.54
2946.00,82.37
2945.00,82.21
2944.00,82.06
2943.00,81.91
2942.00,81.77
2941.00,81.63
2940.00,81.51
2939.00,81.41
2938.00,81.32
2937.00,81.25
2936.00,81.19
2935.00,81.15
2934.00,81.12
2933.00,81.10
2932.00,81.10
2931.00,81.11
2930.00,81.12
2929.00,81.15
2928.00,81.19
2927.00,81.24
2926.00,81.30
2925.00,81.37
2924.00,81.46
2923.00,81.55
2922.00,81.64
2921.00,81.74
2920.00,81.83
2919.00,81.93
2918.00,82.03
2917.00,82.12
2916.00,82.21
2915.00,82.28
2914.00,82.35
2913.00,82.42
2912.00,82.49
2911.00,82.55
2910.00,82.60
2909.00,82.65
2908.00,82.69
2907.00,82.74
2906.00,82.78
2905.00,82.81
2904.00,82.83
2903.00,82.85
2902.00,82.87
2901.00,82.89
2900.00,82.90
2899.00,82.92
2898.00,82.93
2897.00,82.94
2896.00,82.95
2895.00,82.95
2894.00,82.96
2893.00,82.97
2892.00,82.98
2891.00,83.00
2890.00,83.02
2889.00,83.05
2888.00,83.08
2887.00,83.12
2886.00,83.17
2885.00,83.22
2884.00,83.28
2883.00,83.35
2882.00,83.44
2881.00,83.53
2880.00,83.63
2879.00,83.73
2878.00,83.85
2877.00,83.96
2876.00,84.09
2875.00,84.21
2874.00,84.35
2873.00,84.48
2872.00,84.62
2871.00,84.76
2870.00,84.89
2869.00,85.02
2868.00,85.16
2867.00,85.29
2866.00,85.42
2865.00,85.56
2864.00,85.68
2863.00,85.81
2862.00,85.93
2861.00,86.05
2860.00,86.17
2859.00,86.29
2858.00,86.41
2857.00,86.52
2856.00,86.64
2855.00,86.76
2854.00,86.88
2853.00,87.00
2852.00,87.12
2851.00,87.24
2850.00,87.37
2849.00,87.49
2848.00,87.61
2847.00,87.73
2846.00,87.84
2845.00,87.96
2844.00,88.07
2843.00,88.19
2842.00,88.30
2841.00,88.41
2840.00,88.51
2839.00,88.61
2838.00,88.72
2837.00,88.82
2836.00,88.93
2835.00,89.04
2834.00,89.14
2833.00,89.24
2832.00,89.33
2831.00,89.42
2830.00,89.51
2829.00,89.60
2828.00,89.68
2827.00,89.77
2826.00,89.86
2825.00,89.95
2824.00,90.03
2823.00,90.11
2822.00,90.18
2821.00,90.26
2820.00,90.33
2819.00,90.41
2818.00,90.49
2817.00,90.57
2816.00,90.65
2815.00,90.72
2814.00,90.79
2813.00,90.86
2812.00,90.93
2811.00,90.99
2810.00,91.06
2809.00,91.12
2808.00,91.18
2807.00,91.24
2806.00,91.30
2805.00,91.36
2804.00,91.42
2803.00,91.47
2802.00,91.53
2801.00,91.59
2800.00,91.64
2799.00,91.70
2798.00,91.76
2797.00,91.81
2796.00,91.87
2795.00,91.92
2794.00,91.97
2793.00,92.02
2792.00,92.07
2791.00,92.12
2790.00,92.17
2789.00,92.22
2788.00,92.26
2787.00,92.31
2786.00,92.35
2785.00,92.40
2784.00,92.44
2783.00,92.49
2782.00,92.54
2781.00,92.58
2780.00,92.62
2779.00,92.67
2778.00,92.71
2777.00,92.74
2776.00,92.78
2775.00,92.82
2774.00,92.86
2773.00,92.90
2772.00,92.94
2771.00,92.98
2770.00,93.02
2769.00,93.06
2768.00,93.10
2767.00,93.13
2766.00,93.17
2765.00,93.21
2764.00,93.24
2763.00,93.27
2762.00,93.30
2761.00,93.33
2760.00,93.36
2759.00,93.39
2758.00,93.42
2757.00,93.44
2756.00,93.47
2755.00,93.50
2754.00,93.53
2753.00,93.56
2752.00,93.59
2751.00,93.62
2750.00,93.64
2749.00,93.66
2748.00,93.68
2747.00,93.71
2746.00,93.74
2745.00,93.76
2744.00,93.79
2743.00,93.82
2742.00,93.84
2741.00,93.87
2740.00,93.89
2739.00,93.91
2738.00,93.93
2737.00,93.95
2736.00,93.97
2735.00,93.99
2734.00,94.01
2733.00,94.03
2732.00,94.05
2731.00,94.07
2730.00,94.10
2729.00,94.12
2728.00,94.14
2727.00,94.16
2726.00,94.18
2725.00,94.20
2724.00,94.22
2723.00,94.24
2722.00,94.27
2721.00,94.29
2720.00,94.31
2719.00,94.34
2718.00,94.36
2717.00,94.38
2716.00,94.41
2715.00,94.43
2714.00,94.46
2713.00,94.48
2712.00,94.50
2711.00,94.52
2710.00,94.54
2709.00,94.57
2708.00,94.59
2707.00,94.62
2706.00,94.65
2705.00,94.68
2704.00,94.70
2703.00,94.73
2702.00,94.75
2701.00,94.78
2700.00,94.80
2699.00,94.82
2698.00,94.84
2697.00,94.87
2696.00,94.90
2695.00,94.93
2694.00,94.96
2693.00,94.99
2692.00,95.01
2691.00,95.04
2690.00,95.06
2689.00,95.09
2688.00,95.12
2687.00,95.15
2686.00,95.18
2685.00,95.21
2684.00,95.24
2683.00,95.28
2682.00,95.31
2681.00,95.34
2680.00,95.37
2679.00,95.41
2678.00,95.44
2677.00,95.47
2676.00,95.50
2675.00,95.54
2674.00,95.57
2673.00,95.61
2672.00,95.64
2671.00,95.68
2670.00,95.71
2669.00,95.74
2668.00,95.77
2667.00,95.80
2666.00,95.83
2665.00,95.86
2664.00,95.89
2663.00,95.93
2662.00,95.96
2661.00,95.99
2660.00,96.02
2659.00,96.04
2658.00,96.08
2657.00,96.11
2656.00,96.14
2655.00,96.18
2654.00,96.21
2653.00,96.24
2652.00,96.27
2651.00,96.30
2650.00,96.33
2649.00,96.37
2648.00,96.40
2647.00,96.44
2646.00,96.47
2645.00,96.50
2644.00,96.52
2643.00,96.55
2642.00,96.58
2641.00,96.61
2640.00,96.63
2639.00,96.66
2638.00,96.69
2637.00,96.72
2636.00,96.74
2635.00,96.77
2634.00,96.80
2633.00,96.83
2632.00,96.86
2631.00,96.88
2630.00,96.91
2629.00,96.93
2628.00,96.95
2627.00,96.98
2626.00,97.00
2625.00,97.03
2624.00,97.06
2623.00,97.09
2622.00,97.12
2621.00,97.14
2620.00,97.16
2619.00,97.18
2618.00,97.19
2617.00,97.21
2616.00,97.24
2615.00,97.26
2614.00,97.29
2613.00,97.31
2612.00,97.34
2611.00,97.36
2610.00,97.39
2609.00,97.41
2608.00,97.43
2607.00,97.44
2606.00,97.46
2605.00,97.47
2604.00,97.49
2603.00,97.51
2602.00,97.53
2601.00,97.55
2600.00,97.57
2599.00,97.59
2598.00,97.61
2597.00,97.62
2596.00,97.63
2595.00,97.64
2594.00,97.65
2593.00,97.67
2592.00,97.68
2591.00,97.70
2590.00,97.73
2589.00,97.74
2588.00,97.75
2587.00,97.75
2586.00,97.76
2585.00,97.77
2584.00,97.79
2583.00,97.81
2582.00,97.83
2581.00,97.85
2580.00,97.86
2579.00,97.86
2578.00,97.87
2577.00,97.88
2576.00,97.90
2575.00,97.92
2574.00,97.93
2573.00,97.94
2572.00,97.95
2571.00,97.97
2570.00,97.98
2569.00,97.99
2568.00,98.00
2567.00,98.01
2566.00,98.02
2565.00,98.03
2564.00,98.04
2563.00,98.05
2562.00,98.06
2561.00,98.07
2560.00,98.08
2559.00,98.09
2558.00,98.10
2557.00,98.11
2556.00,98.11
2555.00,98.13
2554.00,98.14
2553.00,98.15
2552.00,98.15
2551.00,98.16
2550.00,98.17
2549.00,98.18
2548.00,98.19
2547.00,98.21
2546.00,98.22
2545.00,98.23
2544.00,98.23
2543.00,98.24
2542.00,98.25
2541.00,98.26
2540.00,98.27
2539.00,98.28
2538.00,98.29
2537.00,98.30
2536.00,98.31
2535.00,98.32
2534.00,98.32
2533.00,98.32
2532.00,98.32
2531.00,98.33
2530.00,98.35
2529.00,98.36
2528.00,98.37
2527.00,98.37
2526.00,98.38
2525.00,98.39
2524.00,98.40
2523.00,98.41
2522.00,98.42
2521.00,98.42
2520.00,98.43
2519.00,98.44
2518.00,98.45
2517.00,98.45
2516.00,98.46
2515.00,98.47
2514.00,98.48
2513.00,98.50
2512.00,98.51
2511.00,98.52
2510.00,98.53
2509.00,98.54
2508.00,98.55
2507.00,98.55
2506.00,98.56
2505.00,98.57
2504.00,98.58
2503.00,98.58
2502.00,98.59
2501.00,98.60
2500.00,98.61
2499.00,98.62
2498.00,98.63
2497.00,98.65
2496.00,98.66
2495.00,98.67
2494.00,98.69
2493.00,98.70
2492.00,98.71
2491.00,98.72
2490.00,98.73
2489.00,98.73
2488.00,98.74
2487.00,98.75
2486.00,98.76
2485.00,98.78
2484.00,98.79
2483.00,98.81
2482.00,98.81
2481.00,98.82
2480.00,98.82
2479.00,98.83
2478.00,98.85
2477.00,98.86
2476.00,98.88
2475.00,98.89
2474.00,98.90
2473.00,98.92
2472.00,98.93
2471.00,98.95
2470.00,98.97
2469.00,98.98
2468.00,98.98
2467.00,98.98
2466.00,98.99
2465.00,99.00
2464.00,99.02
2463.00,99.05
2462.00,99.07
2461.00,99.08
2460.00,99.09
2459.00,99.10
2458.00,99.11
2457.00,99.13
2456.00,99.14
2455.00,99.14
2454.00,99.15
2453.00,99.15
2452.00,99.16
2451.00,99.17
2450.00,99.19
2449.00,99.21
2448.00,99.23
2447.00,99.25
2446.00,99.26
2445.00,99.27
2444.00,99.28
2443.00,99.29
2442.00,99.30
2441.00,99.32
2440.00,99.33
2439.00,99.35
2438.00,99.36
2437.00,99.37
2436.00,99.37
2435.00,99.38
2434.00,99.39
2433.00,99.41
2432.00,99.42
2431.00,99.43
2430.00,99.44
2429.00,99.45
2428.00,99.46
2427.00,99.48
2426.00,99.49
2425.00,99.51
2424.00,99.51
2423.00,99.52
2422.00,99.53
2421.00,99.53
2420.00,99.54
2419.00,99.55
2418.00,99.56
2417.00,99.56
2416.00,99.57
2415.00,99.57
2414.00,99.58
2413.00,99.59
2412.00,99.60
2411.00,99.61
2410.00,99.62
2409.00,99.63
2408.00,99.64
2407.00,99.65
2406.00,99.66
2405.00,99.67
2404.00,99.67
2403.00,99.68
2402.00,99.68
2401.00,99.69
2400.00,99.70
2399.00,99.71
2398.00,99.71
2397.00,99.72
2396.00,99.72
2395.00,99.73
2394.00,99.73
2393.00,99.74
2392.00,99.73
2391.00,99.73
2390.00,99.73
2389.00,99.72
2388.00,99.72
2387.00,99.72
2386.00,99.73
2385.00,99.73
2384.00,99.73
2383.00,99.73
2382.00,99.74
2381.00,99.75
2380.00,99.76
2379.00,99.78
2378.00,99.79
2377.00,99.80
2376.00,99.81
2375.00,99.81
2374.00,99.82
2373.00,99.81
2372.00,99.81
2371.00,99.80
2370.00,99.79
2369.00,99.79
2368.00,99.79
2367.00,99.81
2366.00,99.82
2365.00,99.82
2364.00,99.81
2363.00,99.80
2362.00,99.81
2361.00,99.82
2360.00,99.82
2359.00,99.82
2358.00,99.81
2357.00,99.80
2356.00,99.80
2355.00,99.81
2354.00,99.83
2353.00,99.84
2352.00,99.85
2351.00,99.85
2350.00,99.85
2349.00,99.84
2348.00,99.83
2347.00,99.82
2346.00,99.83
2345.00,99.83
2344.00,99.82
2343.00,99.81
2342.00,99.81
2341.00,99.81
2340.00,99.81
2339.00,99.82
2338.00,99.83
2337.00,99.84
2336.00,99.84
2335.00,99.85
2334.00,99.85
2333.00,99.84
2332.00,99.82
2331.00,99.81
2330.00,99.81
2329.00,99.80
2328.00,99.79
2327.00,99.79
2326.00,99.78
2325.00,99.77
2324.00,99.76
2323.00,99.75
2322.00,99.76
2321.00,99.77
2320.00,99.78
2319.00,99.79
2318.00,99.80
2317.00,99.79
2316.00,99.79
2315.00,99.79
2314.00,99.79
2313.00,99.79
2312.00,99.79
2311.00,99.78
2310.00,99.77
2309.00,99.76
2308.00,99.75
2307.00,99.76
2306.00,99.77
2305.00,99.77
2304.00,99.77
2303.00,99.77
2302.00,99.76
2301.00,99.76
2300.00,99.75
2299.00,99.76
2298.00,99.76
2297.00,99.76
2296.00,99.76
2295.00,99.76
2294.00,99.76
2293.00,99.75
2292.00,99.75
2291.00,99.76
2290.00,99.76
2289.00,99.77
2288.00,99.77
2287.00,99.77
2286.00,99.77
2285.00,99.76
2284.00,99.75
2283.00,99.74
2282.00,99.73
2281.00,99.71
2280.00,99.71
2279.00,99.72
2278.00,99.72
2277.00,99.73
2276.00,99.73
2275.00,99.73
2274.00,99.73
2273.00,99.73
2272.00,99.72
2271.00,99.71
2270.00,99.70
2269.00,99.69
2268.00,99.68
2267.00,99.67
2266.00,99.67
2265.00,99.66
2264.00,99.65
2263.00,99.65
2262.00,99.66
2261.00,99.65
2260.00,99.65
2259.00,99.65
2258.00,99.65
2257.00,99.65
2256.00,99.64
2255.00,99.64
2254.00,99.63
2253.00,99.62
2252.00,99.61
2251.00,99.61
2250.00,99.61
2249.00,99.61
2248.00,99.60
2247.00,99.60
2246.00,99.59
2245.00,99.59
2244.00,99.58
2243.00,99.57
2242.00,99.57
2241.00,99.57
2240.00,99.56
2239.00,99.55
2238.00,99.54
2237.00,99.53
2236.00,99.51
2235.00,99.50
2234.00,99.50
2233.00,99.49
2232.00,99.50
2231.00,99.50
2230.00,99.51
2229.00,99.51
2228.00,99.49
2227.00,99.49
2226.00,99.48
2225.00,99.48
2224.00,99.48
2223.00,99.48
2222.00,99.47
2221.00,99.46
2220.00,99.46
2219.00,99.45
2218.00,99.45
2217.00,99.44
2216.00,99.42
2215.00,99.41
2214.00,99.40
2213.00,99.39
2212.00,99.37
2211.00,99.36
2210.00,99.36
2209.00,99.36
2208.00,99.36
2207.00,99.36
2206.00,99.37
2205.00,99.37
2204.00,99.36
2203.00,99.35
2202.00,99.35
2201.00,99.34
2200.00,99.34
2199.00,99.36
2198.00,99.36
2197.00,99.34
2196.00,99.31
2195.00,99.28
2194.00,99.26
2193.00,99.25
2192.00,99.24
2191.00,99.25
2190.00,99.26
2189.00,99.27
2188.00,99.26
2187.00,99.25
2186.00,99.24
2185.00,99.22
2184.00,99.21
2183.00,99.21
2182.00,99.22
2181.00,99.22
2180.00,99.22
2179.00,99.22
2178.00,99.22
2177.00,99.22
2176.00,99.21
2175.00,99.20
2174.00,99.20
2173.00,99.18
2172.00,99.16
2171.00,99.14
2170.00,99.13
2169.00,99.12
2168.00,99.11
2167.00,99.11
2166.00,99.11
2165.00,99.11
2164.00,99.12
2163.00,99.13
2162.00,99.13
2161.00,99.13
2160.00,99.11
2159.00,99.12
2158.00,99.13
2157.00,99.13
2156.00,99.13
2155.00,99.14
2154.00,99.13
2153.00,99.10
2152.00,99.06
2151.00,99.04
2150.00,99.05
2149.00,99.04
2148.00,99.02
2147.00,99.00
2146.00,99.01
2145.00,99.02
2144.00,99.04
2143.00,99.05
2142.00,99.06
2141.00,99.05
2140.00,99.04
2139.00,99.03
2138.00,99.03
2137.00,99.03
2136.00,99.03
2135.00,99.03
2134.00,99.04
2133.00,99.04
2132.00,99.03
2131.00,99.02
2130.00,99.01
2129.00,99.00
2128.00,98.99
2127.00,98.99
2126.00,98.98
2125.00,98.98
2124.00,98.98
2123.00,98.99
2122.00,99.01
2121.00,99.01
2120.00,99.01
2119.00,99.01
2118.00,99.00
2117.00,99.00
2116.00,98.99
2115.00,99.00
2114.00,99.00
2113.00,99.00
2112.00,99.00
2111.00,99.00
2110.00,99.01
2109.00,99.01
2108.00,99.01
2107.00,99.01
2106.00,99.01
2105.00,99.02
2104.00,99.03
2103.00,99.04
2102.00,99.05
2101.00,99.06
2100.00,99.06
2099.00,99.06
2098.00,99.07
2097.00,99.08
2096.00,99.08
2095.00,99.08
2094.00,99.10
2093.00,99.11
2092.00,99.11
2091.00,99.12
2090.00,99.13
2089.00,99.14
2088.00,99.15
2087.00,99.17
2086.00,99.19
2085.00,99.21
2084.00,99.22
2083.00,99.24
2082.00,99.25
2081.00,99.25
2080.00,99.25
2079.00,99.25
2078.00,99.26
2077.00,99.26
2076.00,99.27
2075.00,99.28
2074.00,99.30
2073.00,99.31
2072.00,99.31
2071.00,99.32
2070.00,99.33
2069.00,99.33
2068.00,99.32
2067.00,99.32
2066.00,99.32
2065.00,99.33
2064.00,99.34
2063.00,99.35
2062.00,99.36
2061.00,99.38
2060.00,99.38
2059.00,99.39
2058.00,99.40
2057.00,99.39
2056.00,99.40
2055.00,99.41
2054.00,99.43
2053.00,99.44
2052.00,99.44
2051.00,99.46
2050.00,99.48
2049.00,99.49
2048.00,99.50
2047.00,99.51
2046.00,99.51
2045.00,99.51
2044.00,99.51
2043.00,99.52
2042.00,99.54
2041.00,99.56
2040.00,99.57
2039.00,99.58
2038.00,99.60
2037.00,99.61
2036.00,99.63
2035.00,99.65
2034.00,99.67
2033.00,99.67
2032.00,99.67
2031.00,99.69
2030.00,99.72
2029.00,99.73
2028.00,99.73
2027.00,99.73
2026.00,99.75
2025.00,99.77
2024.00,99.80
2023.00,99.83
2022.00,99.86
2021.00,99.85
2020.00,99.81
2019.00,99.80
2018.00,99.81
2017.00,99.83
2016.00,99.83
2015.00,99.84
2014.00,99.84
2013.00,99.83
2012.00,99.83
2011.00,99.84
2010.00,99.87
2009.00,99.91
2008.00,99.93
2007.00,99.96
2006.00,99.98
2005.00,99.98
2004.00,99.96
2003.00,99.95
2002.00,99.97
2001.00,99.99
2000.00,100.01
1999.00,100.01
1998.00,100.01
1997.00,100.01
1996.00,100.00
1995.00,100.00
1994.00,100.01
1993.00,100.01
1992.00,99.99
1991.00,99.99
1990.00,100.01
1989.00,100.02
1988.00,100.04
1987.00,100.06
1986.00,100.10
1985.00,100.12
1984.00,100.12
1983.00,100.11
1982.00,100.11
1981.00,100.10
1980.00,100.11
1979.00,100.14
1978.00,100.17
1977.00,100.18
1976.00,100.17
1975.00,100.17
1974.00,100.18
1973.00,100.17
1972.00,100.14
1971.00,100.12
1970.00,100.11
1969.00,100.10
1968.00,100.10
1967.00,100.12
1966.00,100.14
1965.00,100.14
1964.00,100.14
1963.00,100.14
1962.00,100.14
1961.00,100.14
1960.00,100.13
1959.00,100.15
1958.00,100.18
1957.00,100.19
1956.00,100.19
1955.00,100.18
1954.00,100.19
1953.00,100.20
1952.00,100.19
1951.00,100.18
1950.00,100.17
1949.00,100.15
1948.00,100.13
1947.00,100.13
1946.00,100.14
1945.00,100.14
1944.00,100.15
1943.00,100.18
1942.00,100.21
1941.00,100.22
1940.00,100.21
1939.00,100.20
1938.00,100.20
1937.00,100.21
1936.00,100.20
1935.00,100.20
1934.00,100.21
1933.00,100.21
1932.00,100.20
1931.00,100.20
1930.00,100.20
1929.00,100.19
1928.00,100.19
1927.00,100.18
1926.00,100.18
1925.00,100.17
1924.00,100.16
1923.00,100.16
1922.00,100.17
1921.00,100.18
1920.00,100.18
1919.00,100.19
1918.00,100.19
1917.00,100.18
1916.00,100.16
1915.00,100.16
1914.00,100.17
1913.00,100.18
1912.00,100.19
1911.00,100.21
1910.00,100.22
1909.00,100.22
1908.00,100.20
1907.00,100.19
1906.00,100.19
1905.00,100.19
1904.00,100.19
1903.00,100.20
1902.00,100.21
1901.00,100.21
1900.00,100.20
1899.00,100.20
1898.00,100.20
1897.00,100.20
1896.00,100.20
1895.00,100.21
1894.00,100.21
1893.00,100.20
1892.00,100.18
1891.00,100.18
1890.00,100.18
1889.00,100.19
1888.00,100.19
1887.00,100.20
1886.00,100.21
1885.00,100.22
1884.00,100.22
1883.00,100.22
1882.00,100.23
1881.00,100.23
1880.00,100.22
1879.00,100.22
1878.00,100.22
1877.00,100.23
1876.00,100.23
1875.00,100.23
1874.00,100.23
1873.00,100.22
1872.00,100.20
1871.00,100.20
1870.00,100.21
1869.00,100.21
1868.00,100.20
1867.00,100.19
1866.00,100.20
1865.00,100.20
1864.00,100.20
1863.00,100.21
1862.00,100.23
1861.00,100.23
1860.00,100.23
1859.00,100.23
1858.00,100.23
1857.00,100.22
1856.00,100.21
1855.00,100.20
1854.00,100.21
1853.00,100.21
1852.00,100.20
1851.00,100.20
1850.00,100.21
1849.00,100.20
1848.00,100.18
1847.00,100.17
1846.00,100.17
1845.00,100.19
1844.00,100.21
1843.00,100.21
1842.00,100.21
1841.00,100.21
1840.00,100.21
1839.00,100.22
1838.00,100.23
1837.00,100.23
1836.00,100.23
1835.00,100.23
1834.00,100.22
1833.00,100.21
1832.00,100.20
1831.00,100.21
1830.00,100.22
1829.00,100.22
1828.00,100.20
1827.00,100.18
1826.00,100.18
1825.00,100.19
1824.00,100.19
1823.00,100.21
1822.00,100.23
1821.00,100.23
1820.00,100.23
1819.00,100.23
1818.00,100.23
1817.00,100.24
1816.00,100.24
1815.00,100.23
1814.00,100.23
1813.00,100.22
1812.00,100.21
1811.00,100.21
1810.00,100.22
1809.00,100.23
1808.00,100.23
1807.00,100.24
1806.00,100.24
1805.00,100.23
1804.00,100.21
1803.00,100.20
1802.00,100.20
1801.00,100.21
1800.00,100.22
1799.00,100.23
1798.00,100.23
1797.00,100.21
1796.00,100.19
1795.00,100.18
1794.00,100.19
1793.00,100.20
1792.00,100.21
1791.00,100.22
1790.00,100.23
1789.00,100.23
1788.00,100.23
1787.00,100.23
1786.00,100.23
1785.00,100.23
1784.00,100.22
1783.00,100.22
1782.00,100.23
1781.00,100.23
1780.00,100.23
1779.00,100.23
1778.00,100.22
1777.00,100.21
1776.00,100.18
1775.00,100.17
1774.00,100.18
1773.00,100.21
1772.00,100.21
1771.00,100.20
1770.00,100.20
1769.00,100.21
1768.00,100.22
1767.00,100.23
1766.00,100.23
1765.00,100.22
1764.00,100.21
1763.00,100.21
1762.00,100.22
1761.00,100.21
1760.00,100.20
1759.00,100.19
1758.00,100.19
1757.00,100.20
1756.00,100.18
1755.00,100.15
1754.00,100.12
1753.00,100.08
1752.00,100.05
1751.00,100.03
1750.00,100.02
1749.00,100.01
1748.00,99.99
1747.00,99.97
1746.00,99.96
1745.00,99.93
1744.00,99.90
1743.00,99.88
1742.00,99.87
1741.00,99.87
1740.00,99.84
1739.00,99.79
1738.00,99.73
1737.00,99.67
1736.00,99.64
1735.00,99.63
1734.00,99.60
1733.00,99.55
1732.00,99.50
1731.00,99.48
1730.00,99.47
1729.00,99.45
1728.00,99.41
1727.00,99.38
1726.00,99.35
1725.00,99.30
1724.00,99.25
1723.00,99.18
1722.00,99.11
1721.00,99.04
1720.00,98.96
1719.00,98.90
1718.00,98.84
1717.00,98.76
1716.00,98.69
1715.00,98.63
1714.00,98.58
1713.00,98.52
1712.00,98.45
1711.00,98.37
1710.00,98.29
1709.00,98.21
1708.00,98.10
1707.00,98.01
1706.00,97.90
1705.00,97.75
1704.00,97.60
1703.00,97.47
1702.00,97.40
1701.00,97.29
1700.00,97.09
1699.00,96.89
1698.00,96.75
1697.00,96.63
1696.00,96.49
1695.00,96.32
1694.00,96.17
1693.00,96.02
1692.00,95.86
1691.00,95.68
1690.00,95.48
1689.00,95.26
1688.00,95.03
1687.00,94.83
1686.00,94.66
1685.00,94.44
1684.00,94.14
1683.00,93.86
1682.00,93.66
1681.00,93.47
1680.00,93.26
1679.00,93.05
1678.00,92.85
1677.00,92.64
1676.00,92.38
1675.00,92.09
1674.00,91.82
1673.00,91.59
1672.00,91.38
1671.00,91.15
1670.00,90.90
1669.00,90.63
1668.00,90.38
1667.00,90.17
1666.00,90.00
1665.00,89.83
1664.00,89.64
1663.00,89.41
1662.00,89.19
1661.00,88.99
1660.00,88.80
1659.00,88.62
1658.00,88.45
1657.00,88.28
1656.00,88.12
1655.00,87.99
1654.00,87.89
1653.00,87.71
1652.00,87.53
1651.00,87.42
1650.00,87.38
1649.00,87.34
1648.00,87.30
1647.00,87.25
1646.00,87.23
1645.00,87.21
1644.00,87.21
1643.00,87.22
1642.00,87.25
1641.00,87.29
1640.00,87.32
1639.00,87.36
1638.00,87.43
1637.00,87.56
1636.00,87.72
1635.00,87.89
1634.00,88.05
1633.00,88.18
1632.00,88.32
1631.00,88.48
1630.00,88.67
1629.00,88.90
1628.00,89.14
1627.00,89.36
1626.00,89.58
1625.00,89.82
1624.00,90.08
1623.00,90.36
1622.00,90.62
1621.00,90.84
1620.00,91.04
1619.00,91.26
1618.00,91.55
1617.00,91.90
1616.00,92.22
1615.00,92.49
1614.00,92.72
1613.00,92.94
1612.00,93.17
1611.00,93.39
1610.00,93.63
1609.00,93.86
1608.00,94.09
1607.00,94.30
1606.00,94.50
1605.00,94.69
1604.00,94.86
1603.00,95.04
1602.00,95.20
1601.00,95.36
1600.00,95.51
1599.00,95.65
1598.00,95.78
1597.00,95.90
1596.00,96.03
1595.00,96.16
1594.00,96.29
1593.00,96.42
1592.00,96.53
1591.00,96.65
1590.00,96.75
1589.00,96.86
1588.00,96.96
1587.00,97.06
1586.00,97.17
1585.00,97.27
1584.00,97.37
1583.00,97.48
1582.00,97.58
1581.00,97.66
1580.00,97.73
1579.00,97.79
1578.00,97.88
1577.00,98.01
1576.00,98.15
1575.00,98.26
1574.00,98.34
1573.00,98.40
1572.00,98.47
1571.00,98.56
1570.00,98.67
1569.00,98.76
1568.00,98.83
1567.00,98.90
1566.00,98.97
1565.00,99.04
1564.00,99.07
1563.00,99.08
1562.00,99.10
1561.00,99.16
1560.00,99.28
1559.00,99.41
1558.00,99.49
1557.00,99.52
1556.00,99.56
1555.00,99.62
1554.00,99.67
1553.00,99.71
1552.00,99.73
1551.00,99.77
1550.00,99.82
1549.00,99.86
1548.00,99.88
1547.00,99.90
1546.00,99.90
1545.00,99.90
1544.00,99.90
1543.00,99.92
1542.00,99.97
1541.00,100.03
1540.00,100.10
1539.00,100.15
1538.00,100.17
1537.00,100.17
1536.00,100.17
1535.00,100.20
1534.00,100.23
1533.00,100.24
1532.00,100.24
1531.00,100.25
1530.00,100.25
1529.00,100.24
1528.00,100.23
1527.00,100.23
1526.00,100.23
1525.00,100.22
1524.00,100.21
1523.00,100.21
1522.00,100.23
1521.00,100.23
1520.00,100.22
1519.00,100.22
1518.00,100.23
1517.00,100.23
1516.00,100.22
1515.00,100.21
1514.00,100.21
1513.00,100.19
1512.00,100.14
1511.00,100.07
1510.00,99.99
1509.00,99.91
1508.00,99.87
1507.00,99.87
1506.00,99.89
1505.00,99.87
1504.00,99.84
1503.00,99.80
1502.00,99.75
1501.00,99.68
1500.00,99.59
1499.00,99.52
1498.00,99.45
1497.00,99.34
1496.00,99.21
1495.00,99.07
1494.00,98.94
1493.00,98.79
1492.00,98.61
1491.00,98.42
1490.00,98.21
1489.00,98.00
1488.00,97.81
1487.00,97.64
1486.00,97.46
1485.00,97.25
1484.00,97.02
1483.00,96.79
1482.00,96.54
1481.00,96.26
1480.00,95.97
1479.00,95.69
1478.00,95.39
1477.00,95.03
1476.00,94.66
1475.00,94.30
1474.00,93.92
1473.00,93.48
1472.00,93.01
1471.00,92.60
1470.00,92.24
1469.00,91.89
1468.00,91.54
1467.00,91.17
1466.00,90.76
1465.00,90.30
1464.00,89.85
1463.00,89.48
1462.00,89.16
1461.00,88.86
1460.00,88.57
1459.00,88.28
1458.00,87.97
1457.00,87.63
1456.00,87.38
1455.00,87.26
1454.00,87.20
1453.00,87.15
1452.00,87.10
1451.00,87.06
1450.00,87.03
1449.00,86.99
1448.00,86.95
1447.00,86.93
1446.00,86.90
1445.00,86.86
1444.00,86.80
1443.00,86.73
1442.00,86.65
1441.00,86.53
1440.00,86.42
1439.00,86.32
1438.00,86.20
1437.00,86.06
1436.00,85.90
1435.00,85.79
1434.00,85.70
1433.00,85.61
1432.00,85.51
1431.00,85.42
1430.00,85.32
1429.00,85.22
1428.00,85.12
1427.00,85.05
1426.00,84.98
1425.00,84.90
1424.00,84.82
1423.00,84.76
1422.00,84.72
1421.00,84.68
1420.00,84.64
1419.00,84.62
1418.00,84.62
1417.00,84.63
1416.00,84.67
1415.00,84.73
1414.00,84.79
1413.00,84.85
1412.00,84.92
1411.00,85.02
1410.00,85.14
1409.00,85.25
1408.00,85.37
1407.00,85.52
1406.00,85.68
1405.00,85.86
1404.00,86.05
1403.00,86.25
1402.00,86.44
1401.00,86.63
1400.00,86.82
1399.00,87.02
1398.00,87.20
1397.00,87.36
1396.00,87.53
1395.00,87.71
1394.00,87.87
1393.00,88.00
1392.00,88.10
1391.00,88.18
1390.00,88.23
1389.00,88.27
1388.00,88.29
1387.00,88.30
1386.00,88.30
1385.00,88.29
1384.00,88.26
1383.00,88.21
1382.00,88.13
1381.00,88.03
1380.00,87.93
1379.00,87.82
1378.00,87.71
1377.00,87.60
1376.00,87.48
1375.00,87.37
1374.00,87.27
1373.00,87.18
1372.00,87.12
1371.00,87.06
1370.00,87.00
1369.00,86.94
1368.00,86.88
1367.00,86.83
1366.00,86.79
1365.00,86.74
1364.00,86.69
1363.00,86.65
1362.00,86.64
1361.00,86.64
1360.00,86.65
1359.00,86.66
1358.00,86.67
1357.00,86.67
1356.00,86.67
1355.00,86.67
1354.00,86.67
1353.00,86.67
1352.00,86.66
1351.00,86.65
1350.00,86.64
1349.00,86.63
1348.00,86.62
1347.00,86.62
1346.00,86.62
1345.00,86.62
1344.00,86.63
1343.00,86.65
1342.00,86.67
1341.00,86.69
1340.00,86.74
1339.00,86.83
1338.00,86.94
1337.00,87.06
1336.00,87.19
1335.00,87.34
1334.00,87.50
1333.00,87.65
1332.00,87.81
1331.00,87.96
1330.00,88.12
1329.00,88.27
1328.00,88.42
1327.00,88.57
1326.00,88.72
1325.00,88.87
1324.00,89.01
1323.00,89.16
1322.00,89.29
1321.00,89.43
1320.00,89.57
1319.00,89.72
1318.00,89.89
1317.00,90.05
1316.00,90.23
1315.00,90.41
1314.00,90.61
1313.00,90.81
1312.00,91.03
1311.00,91.25
1310.00,91.48
1309.00,91.70
1308.00,91.93
1307.00,92.16
1306.00,92.39
1305.00,92.62
1304.00,92.84
1303.00,93.05
1302.00,93.25
1301.00,93.43
1300.00,93.61
1299.00,93.76
1298.00,93.91
1297.00,94.03
1296.00,94.13
1295.00,94.21
1294.00,94.27
1293.00,94.31
1292.00,94.33
1291.00,94.34
1290.00,94.33
1289.00,94.30
1288.00,94.27
1287.00,94.23
1286.00,94.18
1285.00,94.13
1284.00,94.07
1283.00,94.01
1282.00,93.94
1281.00,93.88
1280.00,93.81
1279.00,93.75
1278.00,93.67
1277.00,93.59
1276.00,93.51
1275.00,93.42
1274.00,93.33
1273.00,93.23
1272.00,93.13
1271.00,93.03
1270.00,92.92
1269.00,92.81
1268.00,92.70
1267.00,92.59
1266.00,92.48
1265.00,92.38
1264.00,92.30
1263.00,92.23
1262.00,92.18
1261.00,92.14
1260.00,92.12
1259.00,92.12
1258.00,92.14
1257.00,92.17
1256.00,92.21
1255.00,92.26
1254.00,92.32
1253.00,92.38
1252.00,92.46
1251.00,92.55
1250.00,92.64
1249.00,92.74
1248.00,92.83
1247.00,92.94
1246.00,93.04
1245.00,93.14
1244.00,93.24
1243.00,93.34
1242.00,93.44
1241.00,93.55
1240.00,93.66
1239.00,93.78
1238.00,93.90
1237.00,94.01
1236.00,94.13
1235.00,94.25
1234.00,94.39
1233.00,94.53
1232.00,94.69
1231.00,94.86
1230.00,95.04
1229.00,95.23
1228.00,95.42
1227.00,95.63
1226.00,95.84
1225.00,96.06
1224.00,96.28
1223.00,96.49
1222.00,96.70
1221.00,96.90
1220.00,97.08
1219.00,97.26
1218.00,97.42
1217.00,97.57
1216.00,97.71
1215.00,97.84
1214.00,97.96
1213.00,98.08
1212.00,98.18
1211.00,98.27
1210.00,98.35
1209.00,98.42
1208.00,98.49
1207.00,98.55
1206.00,98.60
1205.00,98.64
1204.00,98.68
1203.00,98.72
1202.00,98.77
1201.00,98.81
1200.00,98.84
1199.00,98.88
1198.00,98.92
1197.00,98.96
1196.00,99.00
1195.00,99.04
1194.00,99.08
1193.00,99.12
1192.00,99.16
1191.00,99.21
1190.00,99.27
1189.00,99.33
1188.00,99.40
1187.00,99.49
1186.00,99.59
1185.00,99.70
1184.00,99.83
1183.00,99.96
1182.00,100.08
1181.00,100.19
1180.00,100.28
1179.00,100.35
1178.00,100.39
1177.00,100.40
1176.00,100.37
1175.00,100.29
1174.00,100.16
1173.00,99.97
1172.00,99.71
1171.00,99.37
1170.00,98.96
1169.00,98.47
1168.00,97.90
1167.00,97.28
1166.00,96.60
1165.00,95.89
1164.00,95.16
1163.00,94.41
1162.00,93.68
1161.00,92.95
1160.00,92.24
1159.00,91.57
1158.00,90.93
1157.00,90.32
1156.00,89.74
1155.00,89.17
1154.00,88.62
1153.00,88.06
1152.00,87.50
1151.00,86.94
1150.00,86.38
1149.00,85.82
1148.00,85.26
1147.00,84.72
1146.00,84.20
1145.00,83.71
1144.00,83.24
1143.00,82.83
1142.00,82.47
1141.00,82.16
1140.00,81.88
1139.00,81.64
1138.00,81.44
1137.00,81.25
1136.00,81.08
1135.00,80.94
1134.00,80.84
1133.00,80.76
1132.00,80.69
1131.00,80.63
1130.00,80.59
1129.00,80.54
1128.00,80.48
1127.00,80.41
1126.00,80.33
1125.00,80.22
1124.00,80.08
1123.00,79.92
1122.00,79.72
1121.00,79.48
1120.00,79.18
1119.00,78.83
1118.00,78.44
1117.00,77.98
1116.00,77.46
1115.00,76.91
1114.00,76.32
1113.00,75.68
1112.00,75.01
1111.00,74.34
1110.00,73.69
1109.00,73.04
1108.00,72.43
1107.00,71.88
1106.00,71.43
1105.00,71.05
1104.00,70.78
1103.00,70.65
1102.00,70.66
1101.00,70.78
1100.00,71.01
1099.00,71.35
1098.00,71.76
1097.00,72.20
1096.00,72.61
1095.00,72.96
1094.00,73.20
1093.00,73.26
1092.00,73.12
1091.00,72.78
1090.00,72.24
1089.00,71.49
1088.00,70.54
1087.00,69.45
1086.00,68.28
1085.00,67.03
1084.00,65.76
1083.00,64.52
1082.00,63.36
1081.00,62.26
1080.00,61.25
1079.00,60.36
1078.00,59.58
1077.00,58.88
1076.00,58.26
1075.00,57.71
1074.00,57.22
1073.00,56.74
1072.00,56.24
1071.00,55.72
1070.00,55.19
1069.00,54.61
1068.00,53.97
1067.00,53.30
1066.00,52.61
1065.00,51.88
1064.00,51.11
1063.00,50.35
1062.00,49.58
1061.00,48.80
1060.00,48.00
1059.00,47.22
1058.00,46.46
1057.00,45.71
1056.00,44.96
1055.00,44.26
1054.00,43.63
1053.00,43.06
1052.00,42.57
1051.00,42.21
1050.00,41.98
1049.00,41.81
1048.00,41.69
1047.00,41.65
1046.00,41.67
1045.00,41.70
1044.00,41.70
1043.00,41.71
1042.00,41.70
1041.00,41.65
1040.00,41.54
1039.00,41.42
1038.00,41.29
1037.00,41.11
1036.00,40.89
1035.00,40.66
1034.00,40.45
1033.00,40.23
1032.00,40.02
1031.00,39.86
1030.00,39.78
1029.00,39.76
1028.00,39.81
1027.00,39.99
1026.00,40.28
1025.00,40.65
1024.00,41.06
1023.00,41.52
1022.00,42.01
1021.00,42.46
1020.00,42.84
1019.00,43.17
1018.00,43.45
1017.00,43.68
1016.00,43.86
1015.00,44.07
1014.00,44.33
1013.00,44.63
1012.00,44.98
1011.00,45.40
1010.00,45.88
1009.00,46.38
1008.00,46.87
1007.00,47.34
1006.00,47.75
1005.00,48.05
1004.00,48.23
1003.00,48.30
1002.00,48.27
1001.00,48.13
1000.00,47.90
999.00,47.62
998.00,47.30
997.00,46.93
996.00,46.52
995.00,46.12
994.00,45.73
993.00,45.36
992.00,45.03
991.00,44.81
990.00,44.72
989.00,44.79
988.00,45.04
987.00,45.51
986.00,46.22
985.00,47.14
984.00,48.25
983.00,49.57
982.00,51.08
981.00,52.73
980.00,54.52
979.00,56.47
978.00,58.57
977.00,60.79
976.00,63.10
975.00,65.47
974.00,67.83
973.00,70.09
972.00,72.19
971.00,74.09
970.00,75.76
969.00,77.17
968.00,78.38
967.00,79.46
966.00,80.50
965.00,81.57
964.00,82.71
963.00,83.98
962.00,85.36
961.00,86.78
960.00,88.21
959.00,89.58
958.00,90.82
957.00,91.88
956.00,92.75
955.00,93.41
954.00,93.89
953.00,94.18
952.00,94.32
951.00,94.34
950.00,94.27
949.00,94.13
948.00,93.94
947.00,93.71
946.00,93.47
945.00,93.21
944.00,92.93
943.00,92.65
942.00,92.38
941.00,92.08
940.00,91.76
939.00,91.41
938.00,91.04
937.00,90.62
936.00,90.17
935.00,89.69
934.00,89.19
933.00,88.65
932.00,88.07
931.00,87.47
930.00,86.89
929.00,86.33
928.00,85.81
927.00,85.35
926.00,84.95
925.00,84.63
924.00,84.41
923.00,84.32
922.00,84.38
921.00,84.58
920.00,84.91
919.00,85.38
918.00,85.98
917.00,86.68
916.00,87.46
915.00,88.32
914.00,89.22
913.00,90.13
912.00,91.00
911.00,91.83
910.00,92.61
909.00,93.30
908.00,93.90
907.00,94.43
906.00,94.89
905.00,95.28
904.00,95.62
903.00,95.93
902.00,96.23
901.00,96.50
900.00,96.74
899.00,96.99
898.00,97.24
897.00,97.50
896.00,97.77
895.00,98.05
894.00,98.36
893.00,98.66
892.00,98.97
891.00,99.28
890.00,99.59
889.00,99.87
888.00,100.13
887.00,100.34
886.00,100.52
885.00,100.62
884.00,100.66
883.00,100.63
882.00,100.53
881.00,100.33
880.00,100.02
879.00,99.62
878.00,99.15
877.00,98.62
876.00,98.05
875.00,97.48
874.00,96.91
873.00,96.36
872.00,95.85
871.00,95.44
870.00,95.13
869.00,94.90
868.00,94.76
867.00,94.72
866.00,94.78
865.00,94.91
864.00,95.09
863.00,95.33
862.00,95.63
861.00,95.97
860.00,96.33
859.00,96.71
858.00,97.10
857.00,97.49
856.00,97.86
855.00,98.22
854.00,98.56
853.00,98.84
852.00,99.07
851.00,99.26
850.00,99.43
849.00,99.56
848.00,99.63
847.00,99.66
846.00,99.67
845.00,99.64
844.00,99.60
843.00,99.57
842.00,99.54
841.00,99.49
840.00,99.39
839.00,99.26
838.00,99.10
837.00,98.89
836.00,98.62
835.00,98.32
834.00,98.03
833.00,97.71
832.00,97.40
831.00,97.10
830.00,96.84
829.00,96.57
828.00,96.26
827.00,95.95
826.00,95.63
825.00,95.26
824.00,94.84
823.00,94.43
822.00,94.07
821.00,93.74
820.00,93.49
819.00,93.38
818.00,93.43
817.00,93.62
816.00,93.92
815.00,94.35
814.00,94.89
813.00,95.50
812.00,96.12
811.00,96.76
810.00,97.39
809.00,97.97
808.00,98.48
807.00,98.95
806.00,99.36
805.00,99.69
804.00,99.93
803.00,100.12
802.00,100.28
801.00,100.39
800.00,100.45
799.00,100.50
798.00,100.54
797.00,100.53
796.00,100.48
795.00,100.40
794.00,100.28
793.00,100.06
792.00,99.74
791.00,99.34
790.00,98.86
789.00,98.29
788.00,97.62
787.00,96.88
786.00,96.11
785.00,95.33
784.00,94.56
783.00,93.87
782.00,93.30
781.00,92.84
780.00,92.48
779.00,92.25
778.00,92.16
777.00,92.16
776.00,92.22
775.00,92.36
774.00,92.59
773.00,92.87
772.00,93.21
771.00,93.64
770.00,94.13
769.00,94.63
768.00,95.11
767.00,95.59
766.00,96.08
765.00,96.56
764.00,96.98
763.00,97.37
762.00,97.74
761.00,98.07
760.00,98.33
759.00,98.56
758.00,98.76
757.00,98.91
756.00,98.99
755.00,99.08
754.00,99.19
753.00,99.30
752.00,99.39
751.00,99.48
750.00,99.57
749.00,99.63
748.00,99.65
747.00,99.66
746.00,99.69
745.00,99.72
744.00,99.75
743.00,99.78
742.00,99.84
741.00,99.87
740.00,99.86
739.00,99.87
738.00,99.91
737.00,99.97
736.00,100.04
735.00,100.11
734.00,100.17
733.00,100.20
732.00,100.19
731.00,100.21
730.00,100.26
729.00,100.30
728.00,100.29
727.00,100.28
726.00,100.28
725.00,100.25
724.00,100.16
723.00,100.06
722.00,99.94
721.00,99.78
720.00,99.56
719.00,99.36
718.00,99.19
717.00,98.98
716.00,98.71
715.00,98.45
714.00,98.24
713.00,98.01
712.00,97.76
711.00,97.52
710.00,97.33
709.00,97.15
708.00,96.96
707.00,96.81
706.00,96.73
705.00,96.67
704.00,96.62
703.00,96.61
702.00,96.66
701.00,96.71
700.00,96.72
699.00,96.77
698.00,96.88
697.00,97.00
696.00,97.11
695.00,97.25
694.00,97.39
693.00,97.48
692.00,97.49
691.00,97.55
690.00,97.71
689.00,97.88
688.00,98.01
687.00,98.15
686.00,98.29
685.00,98.37
684.00,98.38
683.00,98.42
682.00,98.54
681.00,98.66
680.00,98.73
679.00,98.81
678.00,98.92
677.00,99.01
676.00,99.05
675.00,99.12
674.00,99.23
673.00,99.31
672.00,99.38
671.00,99.55
670.00,99.83
669.00,100.00
668.00,99.87
667.00,99.66
666.00,99.66
665.00,99.73
664.00,99.76
663.00,99.83
662.00,99.97
661.00,100.11
660.00,100.18
659.00,100.28
658.00,100.43
657.00,100.45
656.00,100.31
655.00,100.20
654.00,100.18
653.00,100.12
652.00,99.93
651.00,99.79
650.00,99.77
