Created as New Dataset,Sample 001 By iruser Date Tuesday, March 24 2026
cm-1,%T
4200.00,100.45
4199.00,100.44
4198.00,100.44
4197.00,100.43
4196.00,100.43
4195.00,100.44
4194.00,100.44
4193.00,100.45
4192.00,100.45
4191.00,100.45
4190.00,100.44
4189.00,100.43
4188.00,100.43
4187.00,100.43
4186.00,100.43
4185.00,100.44
4184.00,100.44
4183.00,100.44
4182.00,100.44
4181.00,100.44
4180.00,100.44
4179.00,100.44
4178.00,100.44
4177.00,100.44
4176.00,100.44
4175.00,100.44
4174.00,100.45
4173.00,100.45
4172.00,100.44
4171.00,100.44
4170.00,100.43
4169.00,100.43
4168.00,100.44
4167.00,100.44
4166.00,100.44
4165.00,100.44
4164.00,100.43
4163.00,100.43
4162.00,100.43
4161.00,100.42
4160.00,100.42
4159.00,100.42
4158.00,100.43
4157.00,100.43
4156.00,100.43
4155.00,100.43
4154.00,100.43
4153.00,100.43
4152.00,100.43
4151.00,100.42
4150.00,100.42
4149.00,100.42
4148.00,100.42
4147.00,100.42
4146.00,100.42
4145.00,100.41
4144.00,100.41
4143.00,100.40
4142.00,100.39
4141.00,100.39
4140.00,100.39
4139.00,100.39
4138.00,100.39
4137.00,100.39
4136.00,100.39
4135.00,100.39
4134.00,100.39
4133.00,100.39
4132.00,100.39
4131.00,100.39
4130.00,100.39
4129.00,100.39
4128.00,100.39
4127.00,100.39
4126.00,100.39
4125.00,100.39
4124.00,100.39
4123.00,100.39
4122.00,100.39
4121.00,100.39
4120.00,100.39
4119.00,100.39
4118.00,100.39
4117.00,100.39
4116.00,100.39
4115.00,100.38
4114.00,100.38
4113.00,100.38
4112.00,100.38
4111.00,100.38
4110.00,100.37
4109.00,100.36
4108.00,100.36
4107.00,100.35
4106.00,100.35
4105.00,100.36
4104.00,100.36
4103.00,100.36
4102.00,100.36
4101.00,100.35
4100.00,100.35
4099.00,100.35
4098.00,100.35
4097.00,100.36
4096.00,100.36
4095.00,100.36
4094.00,100.36
4093.00,100.36
4092.00,100.35
4091.00,100.34
4090.00,100.33
4089.00,100.33
4088.00,100.33
4087.00,100.33
4086.00,100.32
4085.00,100.32
4084.00,100.32
4083.00,100.32
4082.00,100.32
4081.00,100.32
4080.00,100.31
4079.00,100.31
4078.00,100.31
4077.00,100.31
4076.00,100.32
4075.00,100.32
4074.00,100.32
4073.00,100.31
4072.00,100.31
4071.00,100.30
4070.00,100.29
4069.00,100.29
4068.00,100.29
4067.00,100.29
4066.00,100.29
4065.00,100.28
4064.00,100.28
4063.00,100.28
4062.00,100.28
4061.00,100.28
4060.00,100.28
4059.00,100.28
4058.00,100.28
4057.00,100.27
4056.00,100.27
4055.00,100.26
4054.00,100.26
4053.00,100.25
4052.00,100.25
4051.00,100.25
4050.00,100.24
4049.00,100.24
4048.00,100.24
4047.00,100.24
4046.00,100.24
4045.00,100.24
4044.00,100.24
4043.00,100.24
4042.00,100.24
4041.00,100.24
4040.00,100.24
4039.00,100.24
4038.00,100.24
4037.00,100.24
4036.00,100.24
4035.00,100.23
4034.00,100.23
4033.00,100.22
4032.00,100.22
4031.00,100.22
4030.00,100.22
4029.00,100.21
4028.00,100.21
4027.00,100.21
4026.00,100.20
4025.00,100.20
4024.00,100.20
4023.00,100.20
4022.00,100.20
4021.00,100.20
4020.00,100.20
4019.00,100.20
4018.00,100.21
4017.00,100.21
4016.00,100.21
4015.00,100.21
4014.00,100.20
4013.00,100.20
4012.00,100.20
4011.00,100.20
4010.00,100.20
4009.00,100.20
4008.00,100.20
4007.00,100.20
4006.00,100.20
4005.00,100.20
4004.00,100.21
4003.00,100.21
4002.00,100.21
4001.00,100.21
4000.00,100.21
3999.00,100.21
3998.00,100.21
3997.00,100.21
3996.00,100.21
3995.00,100.20
3994.00,100.20
3993.00,100.20
3992.00,100.20
3991.00,100.21
3990.00,100.21
3989.00,100.22
3988.00,100.22
3987.00,100.22
3986.00,100.22
3985.00,100.22
3984.00,100.22
3983.00,100.22
3982.00,100.22
3981.00,100.22
3980.00,100.22
3979.00,100.22
3978.00,100.23
3977.00,100.24
3976.00,100.24
3975.00,100.25
3974.00,100.25
3973.00,100.26
3972.00,100.26
3971.00,100.26
3970.00,100.25
3969.00,100.25
3968.00,100.25
3967.00,100.25
3966.00,100.25
3965.00,100.26
3964.00,100.25
3963.00,100.25
3962.00,100.25
3961.00,100.25
3960.00,100.26
3959.00,100.26
3958.00,100.25
3957.00,100.25
3956.00,100.26
3955.00,100.26
3954.00,100.26
3953.00,100.26
3952.00,100.27
3951.00,100.27
3950.00,100.28
3949.00,100.28
3948.00,100.28
3947.00,100.28
3946.00,100.28
3945.00,100.28
3944.00,100.29
3943.00,100.30
3942.00,100.31
3941.00,100.31
3940.00,100.30
3939.00,100.30
3938.00,100.30
3937.00,100.30
3936.00,100.31
3935.00,100.31
3934.00,100.31
3933.00,100.31
3932.00,100.32
3931.00,100.32
3930.00,100.33
3929.00,100.32
3928.00,100.32
3927.00,100.31
3926.00,100.31
3925.00,100.31
3924.00,100.32
3923.00,100.33
3922.00,100.34
3921.00,100.34
3920.00,100.34
3919.00,100.34
3918.00,100.34
3917.00,100.35
3916.00,100.34
3915.00,100.34
3914.00,100.33
3913.00,100.33
3912.00,100.33
3911.00,100.33
3910.00,100.33
3909.00,100.34
3908.00,100.34
3907.00,100.33
3906.00,100.33
3905.00,100.33
3904.00,100.34
3903.00,100.34
3902.00,100.35
3901.00,100.35
3900.00,100.36
3899.00,100.37
3898.00,100.37
3897.00,100.36
3896.00,100.36
3895.00,100.36
3894.00,100.37
3893.00,100.37
3892.00,100.38
3891.00,100.38
3890.00,100.38
3889.00,100.36
3888.00,100.36
3887.00,100.35
3886.00,100.36
3885.00,100.36
3884.00,100.37
3883.00,100.38
3882.00,100.39
3881.00,100.40
3880.00,100.41
3879.00,100.40
3878.00,100.39
3877.00,100.38
3876.00,100.38
3875.00,100.39
3874.00,100.40
3873.00,100.40
3872.00,100.40
3871.00,100.40
3870.00,100.40
3869.00,100.39
3868.00,100.38
3867.00,100.37
3866.00,100.38
3865.00,100.39
3864.00,100.40
3863.00,100.42
3862.00,100.42
3861.00,100.42
3860.00,100.41
3859.00,100.40
3858.00,100.40
3857.00,100.40
3856.00,100.40
3855.00,100.39
3854.00,100.40
3853.00,100.40
3852.00,100.40
3851.00,100.40
3850.00,100.41
3849.00,100.42
3848.00,100.42
3847.00,100.42
3846.00,100.42
3845.00,100.41
3844.00,100.41
3843.00,100.41
3842.00,100.42
3841.00,100.42
3840.00,100.43
3839.00,100.45
3838.00,100.45
3837.00,100.44
3836.00,100.43
3835.00,100.42
3834.00,100.42
3833.00,100.43
3832.00,100.44
3831.00,100.44
3830.00,100.45
3829.00,100.45
3828.00,100.44
3827.00,100.44
3826.00,100.44
3825.00,100.44
3824.00,100.44
3823.00,100.43
3822.00,100.43
3821.00,100.43
3820.00,100.43
3819.00,100.43
3818.00,100.43
3817.00,100.43
3816.00,100.43
3815.00,100.43
3814.00,100.44
3813.00,100.44
3812.00,100.44
3811.00,100.43
3810.00,100.42
3809.00,100.42
3808.00,100.42
3807.00,100.42
3806.00,100.43
3805.00,100.43
3804.00,100.43
3803.00,100.43
3802.00,100.43
3801.00,100.44
3800.00,100.44
3799.00,100.44
3798.00,100.44
3797.00,100.44
3796.00,100.44
3795.00,100.44
3794.00,100.44
3793.00,100.45
3792.00,100.45
3791.00,100.45
3790.00,100.44
3789.00,100.43
3788.00,100.42
3787.00,100.42
3786.00,100.42
3785.00,100.42
3784.00,100.42
3783.00,100.41
3782.00,100.41
3781.00,100.41
3780.00,100.41
3779.00,100.41
3778.00,100.42
3777.00,100.42
3776.00,100.43
3775.00,100.42
3774.00,100.41
3773.00,100.40
3772.00,100.40
3771.00,100.40
3770.00,100.40
3769.00,100.41
3768.00,100.41
3767.00,100.41
3766.00,100.40
3765.00,100.40
3764.00,100.40
3763.00,100.40
3762.00,100.39
3761.00,100.39
3760.00,100.39
3759.00,100.39
3758.00,100.39
3757.00,100.38
3756.00,100.38
3755.00,100.37
3754.00,100.37
3753.00,100.36
3752.00,100.36
3751.00,100.35
3750.00,100.34
3749.00,100.33
3748.00,100.33
3747.00,100.33
3746.00,100.33
3745.00,100.34
3744.00,100.33
3743.00,100.33
3742.00,100.33
3741.00,100.33
3740.00,100.33
3739.00,100.31
3738.00,100.30
3737.00,100.29
3736.00,100.30
3735.00,100.32
3734.00,100.34
3733.00,100.34
3732.00,100.33
3731.00,100.31
3730.00,100.30
3729.00,100.29
3728.00,100.28
3727.00,100.27
3726.00,100.26
3725.00,100.26
3724.00,100.26
3723.00,100.26
3722.00,100.26
3721.00,100.26
3720.00,100.26
3719.00,100.26
3718.00,100.25
3717.00,100.24
3716.00,100.22
3715.00,100.21
3714.00,100.19
3713.00,100.17
3712.00,100.16
3711.00,100.15
3710.00,100.15
3709.00,100.15
3708.00,100.15
3707.00,100.15
3706.00,100.14
3705.00,100.13
3704.00,100.13
3703.00,100.12
3702.00,100.11
3701.00,100.10
3700.00,100.09
3699.00,100.07
3698.00,100.05
3697.00,100.03
3696.00,100.00
3695.00,99.98
3694.00,99.96
3693.00,99.94
3692.00,99.93
3691.00,99.93
3690.00,99.92
3689.00,99.91
3688.00,99.87
3687.00,99.84
3686.00,99.81
3685.00,99.78
3684.00,99.75
3683.00,99.72
3682.00,99.69
3681.00,99.66
3680.00,99.63
3679.00,99.60
3678.00,99.57
3677.00,99.53
3676.00,99.49
3675.00,99.45
3674.00,99.40
3673.00,99.36
3672.00,99.31
3671.00,99.26
3670.00,99.21
3669.00,99.16
3668.00,99.11
3667.00,99.06
3666.00,99.01
3665.00,98.96
3664.00,98.90
3663.00,98.84
3662.00,98.77
3661.00,98.71
3660.00,98.64
3659.00,98.58
3658.00,98.51
3657.00,98.43
3656.00,98.36
3655.00,98.29
3654.00,98.22
3653.00,98.14
3652.00,98.07
3651.00,97.98
3650.00,97.89
3649.00,97.79
3648.00,97.70
3647.00,97.60
3646.00,97.52
3645.00,97.44
3644.00,97.36
3643.00,97.29
3642.00,97.20
3641.00,97.11
3640.00,97.02
3639.00,96.92
3638.00,96.82
3637.00,96.72
3636.00,96.62
3635.00,96.52
3634.00,96.41
3633.00,96.31
3632.00,96.21
3631.00,96.09
3630.00,95.96
3629.00,95.81
3628.00,95.69
3627.00,95.58
3626.00,95.49
3625.00,95.40
3624.00,95.31
3623.00,95.22
3622.00,95.11
3621.00,95.00
3620.00,94.87
3619.00,94.74
3618.00,94.61
3617.00,94.48
3616.00,94.36
3615.00,94.24
3614.00,94.11
3613.00,93.98
3612.00,93.85
3611.00,93.72
3610.00,93.58
3609.00,93.44
3608.00,93.30
3607.00,93.16
3606.00,93.04
3605.00,92.92
3604.00,92.78
3603.00,92.65
3602.00,92.50
3601.00,92.36
3600.00,92.22
3599.00,92.08
3598.00,91.94
3597.00,91.78
3596.00,91.62
3595.00,91.45
3594.00,91.30
3593.00,91.15
3592.00,91.01
3591.00,90.87
3590.00,90.71
3589.00,90.54
3588.00,90.36
3587.00,90.18
3586.00,90.01
3585.00,89.85
3584.00,89.69
3583.00,89.54
3582.00,89.38
3581.00,89.23
3580.00,89.06
3579.00,88.90
3578.00,88.73
3577.00,88.55
3576.00,88.37
3575.00,88.19
3574.00,88.01
3573.00,87.84
3572.00,87.67
3571.00,87.50
3570.00,87.33
3569.00,87.14
3568.00,86.94
3567.00,86.74
3566.00,86.54
3565.00,86.35
3564.00,86.18
3563.00,86.01
3562.00,85.83
3561.00,85.66
3560.00,85.48
3559.00,85.30
3558.00,85.11
3557.00,84.92
3556.00,84.74
3555.00,84.56
3554.00,84.37
3553.00,84.17
3552.00,83.98
3551.00,83.79
3550.00,83.60
3549.00,83.41
3548.00,83.22
3547.00,83.01
3546.00,82.81
3545.00,82.61
3544.00,82.42
3543.00,82.23
3542.00,82.05
3541.00,81.86
3540.00,81.67
3539.00,81.48
3538.00,81.29
3537.00,81.10
3536.00,80.90
3535.00,80.71
3534.00,80.51
3533.00,80.32
3532.00,80.13
3531.00,79.93
3530.00,79.74
3529.00,79.55
3528.00,79.35
3527.00,79.16
3526.00,78.96
3525.00,78.76
3524.00,78.56
3523.00,78.36
3522.00,78.16
3521.00,77.97
3520.00,77.78
3519.00,77.59
3518.00,77.40
3517.00,77.20
3516.00,77.01
3515.00,76.82
3514.00,76.63
3513.00,76.45
3512.00,76.26
3511.00,76.07
3510.00,75.88
3509.00,75.68
3508.00,75.48
3507.00,75.29
3506.00,75.10
3505.00,74.90
3504.00,74.71
3503.00,74.51
3502.00,74.32
3501.00,74.13
3500.00,73.94
3499.00,73.75
3498.00,73.56
3497.00,73.37
3496.00,73.18
3495.00,73.00
3494.00,72.82
3493.00,72.64
3492.00,72.46
3491.00,72.28
3490.00,72.09
3489.00,71.90
3488.00,71.71
3487.00,71.53
3486.00,71.35
3485.00,71.17
3484.00,70.99
3483.00,70.80
3482.00,70.61
3481.00,70.42
3480.00,70.23
3479.00,70.05
3478.00,69.88
3477.00,69.70
3476.00,69.53
3475.00,69.35
3474.00,69.17
3473.00,68.99
3472.00,68.81
3471.00,68.62
3470.00,68.45
3469.00,68.27
3468.00,68.09
3467.00,67.92
3466.00,67.75
3465.00,67.58
3464.00,67.41
3463.00,67.23
3462.00,67.05
3461.00,66.87
3460.00,66.70
3459.00,66.54
3458.00,66.37
3457.00,66.20
3456.00,66.02
3455.00,65.85
3454.00,65.68
3453.00,65.51
3452.00,65.35
3451.00,65.19
3450.00,65.02
3449.00,64.85
3448.00,64.68
3447.00,64.52
3446.00,64.35
3445.00,64.19
3444.00,64.03
3443.00,63.87
3442.00,63.70
3441.00,63.54
3440.00,63.38
3439.00,63.21
3438.00,63.05
3437.00,62.90
3436.00,62.74
3435.00,62.59
3434.00,62.43
3433.00,62.28
3432.00,62.12
3431.00,61.97
3430.00,61.82
3429.00,61.67
3428.00,61.52
3427.00,61.37
3426.00,61.22
3425.00,61.08
3424.00,60.93
3423.00,60.79
3422.00,60.64
3421.00,60.49
3420.00,60.34
3419.00,60.20
3418.00,60.06
3417.00,59.92
3416.00,59.78
3415.00,59.63
3414.00,59.49
3413.00,59.34
3412.00,59.20
3411.00,59.06
3410.00,58.93
3409.00,58.80
3408.00,58.67
3407.00,58.54
3406.00,58.41
3405.00,58.28
3404.00,58.15
3403.00,58.01
3402.00,57.87
3401.00,57.74
3400.00,57.62
3399.00,57.50
3398.00,57.38
3397.00,57.26
3396.00,57.14
3395.00,57.01
3394.00,56.89
3393.00,56.77
3392.00,56.66
3391.00,56.56
3390.00,56.45
3389.00,56.35
3388.00,56.23
3387.00,56.12
3386.00,56.01
3385.00,55.91
3384.00,55.80
3383.00,55.70
3382.00,55.60
3381.00,55.49
3380.00,55.39
3379.00,55.29
3378.00,55.19
3377.00,55.09
3376.00,55.00
3375.00,54.91
3374.00,54.81
3373.00,54.71
3372.00,54.61
3371.00,54.51
3370.00,54.42
3369.00,54.33
3368.00,54.25
3367.00,54.17
3366.00,54.09
3365.00,54.01
3364.00,53.93
3363.00,53.85
3362.00,53.77
3361.00,53.69
3360.00,53.62
3359.00,53.55
3358.00,53.48
3357.00,53.41
3356.00,53.34
3355.00,53.27
3354.00,53.20
3353.00,53.12
3352.00,53.05
3351.00,52.98
3350.00,52.92
3349.00,52.86
3348.00,52.81
3347.00,52.75
3346.00,52.69
3345.00,52.63
3344.00,52.57
3343.00,52.51
3342.00,52.46
3341.00,52.40
3340.00,52.35
3339.00,52.30
3338.00,52.25
3337.00,52.20
3336.00,52.16
3335.00,52.11
3334.00,52.07
3333.00,52.02
3332.00,51.97
3331.00,51.92
3330.00,51.88
3329.00,51.84
3328.00,51.80
3327.00,51.76
3326.00,51.72
3325.00,51.68
3324.00,51.64
3323.00,51.61
3322.00,51.57
3321.00,51.54
3320.00,51.50
3319.00,51.46
3318.00,51.43
3317.00,51.40
3316.00,51.37
3315.00,51.34
3314.00,51.31
3313.00,51.29
3312.00,51.26
3311.00,51.23
3310.00,51.20
3309.00,51.16
3308.00,51.13
3307.00,51.10
3306.00,51.07
3305.00,51.06
3304.00,51.04
3303.00,51.03
3302.00,51.01
3301.00,50.99
3300.00,50.96
3299.00,50.94
3298.00,50.93
3297.00,50.91
3296.00,50.89
3295.00,50.87
3294.00,50.85
3293.00,50.83
3292.00,50.82
3291.00,50.81
3290.00,50.80
3289.00,50.79
3288.00,50.78
3287.00,50.77
3286.00,50.76
3285.00,50.75
3284.00,50.75
3283.00,50.75
3282.00,50.75
3281.00,50.75
3280.00,50.74
3279.00,50.74
3278.00,50.74
3277.00,50.73
3276.00,50.73
3275.00,50.73
3274.00,50.73
3273.00,50.73
3272.00,50.73
3271.00,50.74
3270.00,50.74
3269.00,50.75
3268.00,50.77
3267.00,50.78
3266.00,50.79
3265.00,50.80
3264.00,50.81
3263.00,50.82
3262.00,50.84
3261.00,50.86
3260.00,50.88
3259.00,50.89
3258.00,50.91
3257.00,50.93
3256.00,50.96
3255.00,50.98
3254.00,51.01
3253.00,51.04
3252.00,51.06
3251.00,51.09
3250.00,51.12
3249.00,51.16
3248.00,51.19
3247.00,51.23
3246.00,51.28
3245.00,51.32
3244.00,51.36
3243.00,51.41
3242.00,51.45
3241.00,51.50
3240.00,51.54
3239.00,51.59
3238.00,51.63
3237.00,51.68
3236.00,51.73
3235.00,51.78
3234.00,51.84
3233.00,51.90
3232.00,51.97
3231.00,52.04
3230.00,52.11
3229.00,52.17
3228.00,52.23
3227.00,52.30
3226.00,52.36
3225.00,52.44
3224.00,52.51
3223.00,52.59
3222.00,52.67
3221.00,52.74
3220.00,52.82
3219.00,52.90
3218.00,52.99
3217.00,53.08
3216.00,53.17
3215.00,53.27
3214.00,53.35
3213.00,53.44
3212.00,53.54
3211.00,53.63
3210.00,53.73
3209.00,53.84
3208.00,53.94
3207.00,54.04
3206.00,54.15
3205.00,54.26
3204.00,54.36
3203.00,54.47
3202.00,54.58
3201.00,54.70
3200.00,54.81
3199.00,54.93
3198.00,55.05
3197.00,55.17
3196.00,55.28
3195.00,55.40
3194.00,55.52
3193.00,55.65
3192.00,55.78
3191.00,55.91
3190.00,56.04
3189.00,56.18
3188.00,56.31
3187.00,56.45
3186.00,56.58
3185.00,56.72
3184.00,56.86
3183.00,57.00
3182.00,57.14
3181.00,57.28
3180.00,57.43
3179.00,57.58
3178.00,57.73
3177.00,57.88
3176.00,58.03
3175.00,58.18
3174.00,58.34
3173.00,58.49
3172.00,58.66
3171.00,58.82
3170.00,58.98
3169.00,59.13
3168.00,59.29
3167.00,59.45
3166.00,59.62
3165.00,59.78
3164.00,59.95
3163.00,60.11
3162.00,60.28
3161.00,60.45
3160.00,60.62
3159.00,60.79
3158.00,60.96
3157.00,61.14
3156.00,61.31
3155.00,61.48
3154.00,61.66
3153.00,61.83
3152.00,62.01
3151.00,62.19
3150.00,62.38
3149.00,62.56
3148.00,62.75
3147.00,62.93
3146.00,63.11
3145.00,63.29
3144.00,63.47
3143.00,63.65
3142.00,63.84
3141.00,64.02
3140.00,64.21
3139.00,64.41
3138.00,64.60
3137.00,64.79
3136.00,64.98
3135.00,65.18
3134.00,65.37
3133.00,65.55
3132.00,65.74
3131.00,65.92
3130.00,66.11
3129.00,66.30
3128.00,66.50
3127.00,66.69
3126.00,66.89
3125.00,67.09
3124.00,67.28
3123.00,67.47
3122.00,67.66
3121.00,67.85
3120.00,68.04
3119.00,68.24
3118.00,68.43
3117.00,68.63
3116.00,68.83
3115.00,69.03
3114.00,69.23
3113.00,69.42
3112.00,69.62
3111.00,69.82
3110.00,70.02
3109.00,70.22
3108.00,70.42
3107.00,70.61
3106.00,70.81
3105.00,71.00
3104.00,71.20
3103.00,71.39
3102.00,71.59
3101.00,71.78
3100.00,71.98
3099.00,72.17
3098.00,72.37
3097.00,72.56
3096.00,72.75
3095.00,72.94
3094.00,73.14
3093.00,73.33
3092.00,73.53
3091.00,73.72
3090.00,73.91
3089.00,74.11
3088.00,74.30
3087.00,74.49
3086.00,74.68
3085.00,74.86
3084.00,75.05
3083.00,75.24
3082.00,75.42
3081.00,75.61
3080.00,75.80
3079.00,75.99
3078.00,76.18
3077.00,76.37
3076.00,76.56
3075.00,76.74
3074.00,76.92
3073.00,77.10
3072.00,77.28
3071.00,77.46
3070.00,77.64
3069.00,77.82
3068.00,78.00
3067.00,78.18
3066.00,78.36
3065.00,78.54
3064.00,78.72
3063.00,78.89
3062.00,79.06
3061.00,79.24
3060.00,79.41
3059.00,79.59
3058.00,79.76
3057.00,79.93
3056.00,80.10
3055.00,80.26
3054.00,80.43
3053.00,80.60
3052.00,80.76
3051.00,80.93
3050.00,81.10
3049.00,81.26
3048.00,81.42
3047.00,81.58
3046.00,81.74
3045.00,81.90
3044.00,82.06
3043.00,82.21
3042.00,82.37
3041.00,82.52
3040.00,82.67
3039.00,82.82
3038.00,82.97
3037.00,83.12
3036.00,83.26
3035.00,83.40
3034.00,83.55
3033.00,83.69
3032.00,83.84
3031.00,83.98
3030.00,84.12
3029.00,84.26
3028.00,84.39
3027.00,84.52
3026.00,84.65
3025.00,84.77
3024.00,84.90
3023.00,85.03
3022.00,85.15
3021.00,85.27
3020.00,85.38
3019.00,85.50
3018.00,85.62
3017.00,85.73
3016.00,85.83
3015.00,85.93
3014.00,86.03
3013.00,86.12
3012.00,86.21
3011.00,86.29
3010.00,86.37
3009.00,86.45
3008.00,86.53
3007.00,86.60
3006.00,86.67
3005.00,86.73
3004.00,86.79
3003.00,86.84
3002.00,86.89
3001.00,86.93
3000.00,86.97
2999.00,87.00
2998.00,87.02
2997.00,87.03
2996.00,87.04
2995.00,87.05
2994.00,87.05
2993.00,87.04
2992.00,87.03
2991.00,87.01
2990.00,86.98
2989.00,86.95
2988.00,86.91
2987.00,86.87
2986.00,86.82
2985.00,86.77
2984.00,86.72
2983.00,86.66
2982.00,86.59
2981.00,86.53
2980.00,86.47
2979.00,86.41
2978.00,86.35
2977.00,86.29
2976.00,86.22
2975.00,86.16
2974.00,86.09
2973.00,86.02
2972.00,85.94
2971.00,85.87
2970.00,85.79
2969.00,85.71
2968.00,85.62
2967.00,85.52
2966.00,85.42
2965.00,85.30
2964.00,85.18
2963.00,85.05
2962.00,84.91
2961.00,84.76
2960.00,84.60
2959.00,84.44
2958.00,84.27
2957.00,84.09
2956.00,83.91
2955.00,83.72
2954.00,83.52
2953.00,83.33
2952.00,83.14
2951.00,82.95
2950.00,82.76
2949.00,82.58
2948.00,82.40
2947.00,82.22
2946.00,82.04
2945.00,81.87
2944.00,81.71
2943.00,81.55
2942.00,81.41
2941.00,81.28
2940.00,81.15
2939.00,81.05
2938.00,80.96
2937.00,80.89
2936.00,80.83
2935.00,80.78
2934.00,80.74
2933.00,80.72
2932.00,80.72
2931.00,80.72
2930.00,80.74
2929.00,80.78
2928.00,80.82
2927.00,80.87
2926.00,80.94
2925.00,81.01
2924.00,81.09
2923.00,81.18
2922.00,81.27
2921.00,81.37
2920.00,81.47
2919.00,81.58
2918.00,81.68
2917.00,81.79
2916.00,81.89
2915.00,82.00
2914.00,82.10
2913.00,82.21
2912.00,82.30
2911.00,82.38
2910.00,82.46
2909.00,82.52
2908.00,82.58
2907.00,82.63
2906.00,82.68
2905.00,82.72
2904.00,82.75
2903.00,82.78
2902.00,82.81
2901.00,82.82
2900.00,82.83
2899.00,82.84
2898.00,82.85
2897.00,82.86
2896.00,82.86
2895.00,82.86
2894.00,82.87
2893.00,82.87
2892.00,82.88
2891.00,82.89
2890.00,82.91
2889.00,82.93
2888.00,82.95
2887.00,82.99
2886.00,83.03
2885.00,83.08
2884.00,83.14
2883.00,83.21
2882.00,83.29
2881.00,83.39
2880.00,83.49
2879.00,83.60
2878.00,83.72
2877.00,83.84
2876.00,83.97
2875.00,84.11
2874.00,84.26
2873.00,84.41
2872.00,84.56
2871.00,84.71
2870.00,84.86
2869.00,85.01
2868.00,85.15
2867.00,85.30
2866.00,85.44
2865.00,85.59
2864.00,85.72
2863.00,85.85
2862.00,85.98
2861.00,86.09
2860.00,86.21
2859.00,86.32
2858.00,86.44
2857.00,86.55
2856.00,86.66
2855.00,86.77
2854.00,86.87
2853.00,86.98
2852.00,87.10
2851.00,87.21
2850.00,87.34
2849.00,87.47
2848.00,87.61
2847.00,87.75
2846.00,87.89
2845.00,88.02
2844.00,88.16
2843.00,88.29
2842.00,88.41
2841.00,88.53
2840.00,88.65
2839.00,88.76
2838.00,88.87
2837.00,88.98
2836.00,89.09
2835.00,89.20
2834.00,89.30
2833.00,89.40
2832.00,89.49
2831.00,89.58
2830.00,89.67
2829.00,89.76
2828.00,89.85
2827.00,89.94
2826.00,90.03
2825.00,90.11
2824.00,90.19
2823.00,90.28
2822.00,90.36
2821.00,90.43
2820.00,90.51
2819.00,90.59
2818.00,90.66
2817.00,90.74
2816.00,90.82
2815.00,90.90
2814.00,90.97
2813.00,91.04
2812.00,91.11
2811.00,91.18
2810.00,91.24
2809.00,91.31
2808.00,91.37
2807.00,91.43
2806.00,91.50
2805.00,91.56
2804.00,91.62
2803.00,91.68
2802.00,91.74
2801.00,91.80
2800.00,91.85
2799.00,91.91
2798.00,91.97
2797.00,92.02
2796.00,92.07
2795.00,92.12
2794.00,92.17
2793.00,92.22
2792.00,92.27
2791.00,92.33
2790.00,92.38
2789.00,92.42
2788.00,92.47
2787.00,92.52
2786.00,92.57
2785.00,92.62
2784.00,92.67
2783.00,92.71
2782.00,92.75
2781.00,92.79
2780.00,92.83
2779.00,92.87
2778.00,92.91
2777.00,92.95
2776.00,92.99
2775.00,93.03
2774.00,93.06
2773.00,93.10
2772.00,93.14
2771.00,93.18
2770.00,93.21
2769.00,93.25
2768.00,93.28
2767.00,93.31
2766.00,93.34
2765.00,93.38
2764.00,93.41
2763.00,93.44
2762.00,93.47
2761.00,93.50
2760.00,93.53
2759.00,93.56
2758.00,93.58
2757.00,93.61
2756.00,93.64
2755.00,93.66
2754.00,93.69
2753.00,93.71
2752.00,93.74
2751.00,93.76
2750.00,93.79
2749.00,93.81
2748.00,93.83
2747.00,93.85
2746.00,93.87
2745.00,93.90
2744.00,93.92
2743.00,93.94
2742.00,93.96
2741.00,93.98
2740.00,94.00
2739.00,94.02
2738.00,94.04
2737.00,94.06
2736.00,94.07
2735.00,94.09
2734.00,94.11
2733.00,94.13
2732.00,94.15
2731.00,94.17
2730.00,94.19
2729.00,94.21
2728.00,94.23
2727.00,94.24
2726.00,94.26
2725.00,94.28
2724.00,94.30
2723.00,94.32
2722.00,94.34
2721.00,94.36
2720.00,94.38
2719.00,94.41
2718.00,94.43
2717.00,94.45
2716.00,94.47
2715.00,94.49
2714.00,94.51
2713.00,94.54
2712.00,94.56
2711.00,94.58
2710.00,94.60
2709.00,94.62
2708.00,94.65
2707.00,94.67
2706.00,94.70
2705.00,94.72
2704.00,94.74
2703.00,94.76
2702.00,94.79
2701.00,94.82
2700.00,94.84
2699.00,94.86
2698.00,94.89
2697.00,94.91
2696.00,94.93
2695.00,94.96
2694.00,94.98
2693.00,95.01
2692.00,95.03
2691.00,95.06
2690.00,95.08
2689.00,95.11
2688.00,95.13
2687.00,95.16
2686.00,95.19
2685.00,95.22
2684.00,95.25
2683.00,95.28
2682.00,95.31
2681.00,95.34
2680.00,95.37
2679.00,95.40
2678.00,95.42
2677.00,95.45
2676.00,95.48
2675.00,95.52
2674.00,95.55
2673.00,95.59
2672.00,95.62
2671.00,95.65
2670.00,95.68
2669.00,95.71
2668.00,95.74
2667.00,95.78
2666.00,95.81
2665.00,95.84
2664.00,95.87
2663.00,95.90
2662.00,95.93
2661.00,95.96
2660.00,95.99
2659.00,96.03
2658.00,96.06
2657.00,96.08
2656.00,96.11
2655.00,96.14
2654.00,96.18
2653.00,96.21
2652.00,96.24
2651.00,96.28
2650.00,96.31
2649.00,96.34
2648.00,96.37
2647.00,96.41
2646.00,96.44
2645.00,96.47
2644.00,96.49
2643.00,96.52
2642.00,96.55
2641.00,96.58
2640.00,96.61
2639.00,96.63
2638.00,96.66
2637.00,96.69
2636.00,96.72
2635.00,96.75
2634.00,96.78
2633.00,96.81
2632.00,96.84
2631.00,96.86
2630.00,96.89
2629.00,96.91
2628.00,96.93
2627.00,96.95
2626.00,96.97
2625.00,97.00
2624.00,97.02
2623.00,97.05
2622.00,97.08
2621.00,97.11
2620.00,97.13
2619.00,97.15
2618.00,97.17
2617.00,97.19
2616.00,97.22
2615.00,97.24
2614.00,97.27
2613.00,97.29
2612.00,97.32
2611.00,97.34
2610.00,97.36
2609.00,97.38
2608.00,97.40
2607.00,97.41
2606.00,97.43
2605.00,97.45
2604.00,97.46
2603.00,97.48
2602.00,97.51
2601.00,97.53
2600.00,97.55
2599.00,97.56
2598.00,97.58
2597.00,97.59
2596.00,97.61
2595.00,97.63
2594.00,97.64
2593.00,97.65
2592.00,97.66
2591.00,97.68
2590.00,97.70
2589.00,97.71
2588.00,97.73
2587.00,97.74
2586.00,97.76
2585.00,97.77
2584.00,97.79
2583.00,97.80
2582.00,97.82
2581.00,97.83
2580.00,97.84
2579.00,97.85
2578.00,97.87
2577.00,97.88
2576.00,97.90
2575.00,97.91
2574.00,97.93
2573.00,97.94
2572.00,97.96
2571.00,97.98
2570.00,97.99
2569.00,98.00
2568.00,98.00
2567.00,98.01
2566.00,98.02
2565.00,98.02
2564.00,98.03
2563.00,98.04
2562.00,98.05
2561.00,98.06
2560.00,98.08
2559.00,98.10
2558.00,98.11
2557.00,98.11
2556.00,98.12
2555.00,98.14
2554.00,98.15
2553.00,98.15
2552.00,98.16
2551.00,98.17
2550.00,98.18
2549.00,98.19
2548.00,98.20
2547.00,98.21
2546.00,98.22
2545.00,98.23
2544.00,98.23
2543.00,98.24
2542.00,98.25
2541.00,98.26
2540.00,98.27
2539.00,98.28
2538.00,98.29
2537.00,98.30
2536.00,98.31
2535.00,98.32
2534.00,98.32
2533.00,98.32
2532.00,98.33
2531.00,98.35
2530.00,98.36
2529.00,98.37
2528.00,98.38
2527.00,98.39
2526.00,98.40
2525.00,98.41
2524.00,98.42
2523.00,98.42
2522.00,98.43
2521.00,98.43
2520.00,98.44
2519.00,98.45
2518.00,98.46
2517.00,98.47
2516.00,98.48
2515.00,98.49
2514.00,98.50
2513.00,98.51
2512.00,98.51
2511.00,98.52
2510.00,98.53
2509.00,98.54
2508.00,98.56
2507.00,98.58
2506.00,98.59
2505.00,98.59
2504.00,98.60
2503.00,98.61
2502.00,98.62
2501.00,98.63
2500.00,98.64
2499.00,98.65
2498.00,98.66
2497.00,98.67
2496.00,98.68
2495.00,98.70
2494.00,98.72
2493.00,98.73
2492.00,98.74
2491.00,98.75
2490.00,98.76
2489.00,98.77
2488.00,98.78
2487.00,98.79
2486.00,98.81
2485.00,98.82
2484.00,98.83
2483.00,98.83
2482.00,98.84
2481.00,98.84
2480.00,98.85
2479.00,98.87
2478.00,98.89
2477.00,98.92
2476.00,98.94
2475.00,98.95
2474.00,98.96
2473.00,98.97
2472.00,98.99
2471.00,99.00
2470.00,99.02
2469.00,99.03
2468.00,99.04
2467.00,99.06
2466.00,99.07
2465.00,99.09
2464.00,99.11
2463.00,99.13
2462.00,99.15
2461.00,99.16
2460.00,99.17
2459.00,99.19
2458.00,99.20
2457.00,99.21
2456.00,99.21
2455.00,99.22
2454.00,99.23
2453.00,99.24
2452.00,99.26
2451.00,99.28
2450.00,99.30
2449.00,99.32
2448.00,99.35
2447.00,99.37
2446.00,99.38
2445.00,99.38
2444.00,99.39
2443.00,99.39
2442.00,99.41
2441.00,99.42
2440.00,99.44
2439.00,99.46
2438.00,99.47
2437.00,99.49
2436.00,99.50
2435.00,99.51
2434.00,99.53
2433.00,99.54
2432.00,99.55
2431.00,99.55
2430.00,99.56
2429.00,99.57
2428.00,99.58
2427.00,99.60
2426.00,99.61
2425.00,99.62
2424.00,99.63
2423.00,99.65
2422.00,99.66
2421.00,99.67
2420.00,99.68
2419.00,99.68
2418.00,99.69
2417.00,99.69
2416.00,99.70
2415.00,99.71
2414.00,99.72
2413.00,99.73
2412.00,99.74
2411.00,99.76
2410.00,99.77
2409.00,99.78
2408.00,99.79
2407.00,99.79
2406.00,99.79
2405.00,99.80
2404.00,99.80
2403.00,99.82
2402.00,99.83
2401.00,99.84
2400.00,99.85
2399.00,99.86
2398.00,99.86
2397.00,99.87
2396.00,99.87
2395.00,99.88
2394.00,99.88
2393.00,99.89
2392.00,99.89
2391.00,99.90
2390.00,99.90
2389.00,99.89
2388.00,99.89
2387.00,99.88
2386.00,99.87
2385.00,99.87
2384.00,99.86
2383.00,99.87
2382.00,99.88
2381.00,99.89
2380.00,99.90
2379.00,99.91
2378.00,99.93
2377.00,99.95
2376.00,99.96
2375.00,99.97
2374.00,99.98
2373.00,99.97
2372.00,99.96
2371.00,99.94
2370.00,99.93
2369.00,99.93
2368.00,99.94
2367.00,99.96
2366.00,99.97
2365.00,99.97
2364.00,99.96
2363.00,99.96
2362.00,99.97
2361.00,99.97
2360.00,99.97
2359.00,99.97
2358.00,99.97
2357.00,99.96
2356.00,99.96
2355.00,99.97
2354.00,99.99
2353.00,100.00
2352.00,100.01
2351.00,100.01
2350.00,100.00
2349.00,99.98
2348.00,99.97
2347.00,99.98
2346.00,99.99
2345.00,100.00
2344.00,99.99
2343.00,99.97
2342.00,99.96
2341.00,99.96
2340.00,99.97
2339.00,99.99
2338.00,100.00
2337.00,100.02
2336.00,100.03
2335.00,100.03
2334.00,100.03
2333.00,100.02
2332.00,100.01
2331.00,100.00
2330.00,99.99
2329.00,99.98
2328.00,99.97
2327.00,99.96
2326.00,99.95
2325.00,99.94
2324.00,99.93
2323.00,99.92
2322.00,99.93
2321.00,99.94
2320.00,99.96
2319.00,99.98
2318.00,99.99
2317.00,100.00
2316.00,99.99
2315.00,99.99
2314.00,99.99
2313.00,99.98
2312.00,99.98
2311.00,99.97
2310.00,99.96
2309.00,99.95
2308.00,99.94
2307.00,99.95
2306.00,99.97
2305.00,99.98
2304.00,99.98
2303.00,99.97
2302.00,99.96
2301.00,99.96
2300.00,99.95
2299.00,99.96
2298.00,99.97
2297.00,99.97
2296.00,99.98
2295.00,99.98
2294.00,99.98
2293.00,99.98
2292.00,99.99
2291.00,99.99
2290.00,100.00
2289.00,99.99
2288.00,99.98
2287.00,99.98
2286.00,99.98
2285.00,99.98
2284.00,99.97
2283.00,99.97
2282.00,99.97
2281.00,99.96
2280.00,99.96
2279.00,99.96
2278.00,99.97
2277.00,99.97
2276.00,99.97
2275.00,99.97
2274.00,99.97
2273.00,99.97
2272.00,99.97
2271.00,99.97
2270.00,99.97
2269.00,99.97
2268.00,99.97
2267.00,99.96
2266.00,99.96
2265.00,99.95
2264.00,99.94
2263.00,99.93
2262.00,99.93
2261.00,99.93
2260.00,99.91
2259.00,99.89
2258.00,99.88
2257.00,99.89
2256.00,99.89
2255.00,99.90
2254.00,99.90
2253.00,99.89
2252.00,99.88
2251.00,99.87
2250.00,99.87
2249.00,99.87
2248.00,99.87
2247.00,99.87
2246.00,99.88
2245.00,99.88
2244.00,99.88
2243.00,99.87
2242.00,99.87
2241.00,99.86
2240.00,99.85
2239.00,99.83
2238.00,99.82
2237.00,99.80
2236.00,99.78
2235.00,99.78
2234.00,99.78
2233.00,99.79
2232.00,99.80
2231.00,99.80
2230.00,99.79
2229.00,99.77
2228.00,99.76
2227.00,99.76
2226.00,99.76
2225.00,99.77
2224.00,99.78
2223.00,99.79
2222.00,99.81
2221.00,99.81
2220.00,99.80
2219.00,99.78
2218.00,99.75
2217.00,99.74
2216.00,99.74
2215.00,99.76
2214.00,99.78
2213.00,99.78
2212.00,99.76
2211.00,99.75
2210.00,99.74
2209.00,99.73
2208.00,99.72
2207.00,99.72
2206.00,99.72
2205.00,99.71
2204.00,99.70
2203.00,99.69
2202.00,99.67
2201.00,99.66
2200.00,99.65
2199.00,99.66
2198.00,99.66
2197.00,99.66
2196.00,99.64
2195.00,99.62
2194.00,99.61
2193.00,99.59
2192.00,99.58
2191.00,99.58
2190.00,99.60
2189.00,99.61
2188.00,99.61
2187.00,99.59
2186.00,99.58
2185.00,99.58
2184.00,99.59
2183.00,99.60
2182.00,99.62
2181.00,99.62
2180.00,99.61
2179.00,99.60
2178.00,99.59
2177.00,99.57
2176.00,99.55
2175.00,99.53
2174.00,99.52
2173.00,99.51
2172.00,99.49
2171.00,99.49
2170.00,99.49
2169.00,99.48
2168.00,99.48
2167.00,99.48
2166.00,99.48
2165.00,99.48
2164.00,99.47
2163.00,99.46
2162.00,99.45
2161.00,99.44
2160.00,99.44
2159.00,99.45
2158.00,99.47
2157.00,99.48
2156.00,99.48
2155.00,99.48
2154.00,99.47
2153.00,99.46
2152.00,99.44
2151.00,99.44
2150.00,99.44
2149.00,99.41
2148.00,99.38
2147.00,99.37
2146.00,99.38
2145.00,99.39
2144.00,99.39
2143.00,99.40
2142.00,99.41
2141.00,99.41
2140.00,99.39
2139.00,99.37
2138.00,99.37
2137.00,99.37
2136.00,99.37
2135.00,99.38
2134.00,99.40
2133.00,99.40
2132.00,99.39
2131.00,99.38
2130.00,99.38
2129.00,99.38
2128.00,99.38
2127.00,99.37
2126.00,99.37
2125.00,99.37
2124.00,99.37
2123.00,99.38
2122.00,99.39
2121.00,99.39
2120.00,99.38
2119.00,99.37
2118.00,99.37
2117.00,99.36
2116.00,99.36
2115.00,99.37
2114.00,99.36
2113.00,99.35
2112.00,99.35
2111.00,99.35
2110.00,99.37
2109.00,99.38
2108.00,99.38
2107.00,99.38
2106.00,99.38
2105.00,99.39
2104.00,99.39
2103.00,99.40
2102.00,99.42
2101.00,99.43
2100.00,99.44
2099.00,99.44
2098.00,99.45
2097.00,99.44
2096.00,99.43
2095.00,99.44
2094.00,99.44
2093.00,99.45
2092.00,99.46
2091.00,99.47
2090.00,99.49
2089.00,99.50
2088.00,99.50
2087.00,99.50
2086.00,99.50
2085.00,99.51
2084.00,99.52
2083.00,99.53
2082.00,99.55
2081.00,99.56
2080.00,99.55
2079.00,99.55
2078.00,99.56
2077.00,99.57
2076.00,99.57
2075.00,99.59
2074.00,99.61
2073.00,99.62
2072.00,99.62
2071.00,99.63
2070.00,99.64
2069.00,99.64
2068.00,99.64
2067.00,99.64
2066.00,99.66
2065.00,99.67
2064.00,99.68
2063.00,99.69
2062.00,99.68
2061.00,99.67
2060.00,99.67
2059.00,99.68
2058.00,99.70
2057.00,99.71
2056.00,99.71
2055.00,99.72
2054.00,99.74
2053.00,99.74
2052.00,99.75
2051.00,99.76
2050.00,99.79
2049.00,99.81
2048.00,99.82
2047.00,99.84
2046.00,99.86
2045.00,99.86
2044.00,99.85
2043.00,99.85
2042.00,99.86
2041.00,99.87
2040.00,99.88
2039.00,99.89
2038.00,99.91
2037.00,99.92
2036.00,99.94
2035.00,99.95
2034.00,99.95
2033.00,99.95
2032.00,99.97
2031.00,100.00
2030.00,100.04
2029.00,100.04
2028.00,100.02
2027.00,100.02
2026.00,100.03
2025.00,100.04
2024.00,100.06
2023.00,100.11
2022.00,100.14
2021.00,100.13
2020.00,100.10
2019.00,100.07
2018.00,100.08
2017.00,100.10
2016.00,100.11
2015.00,100.12
2014.00,100.12
2013.00,100.11
2012.00,100.10
2011.00,100.12
2010.00,100.16
2009.00,100.17
2008.00,100.17
2007.00,100.18
2006.00,100.20
2005.00,100.21
2004.00,100.21
2003.00,100.22
2002.00,100.24
2001.00,100.25
2000.00,100.25
1999.00,100.25
1998.00,100.25
1997.00,100.25
1996.00,100.25
1995.00,100.25
1994.00,100.26
1993.00,100.25
1992.00,100.24
1991.00,100.25
1990.00,100.28
1989.00,100.30
1988.00,100.31
1987.00,100.32
1986.00,100.33
1985.00,100.33
1984.00,100.32
1983.00,100.31
1982.00,100.32
1981.00,100.32
1980.00,100.33
1979.00,100.37
1978.00,100.41
1977.00,100.43
1976.00,100.44
1975.00,100.44
1974.00,100.46
1973.00,100.45
1972.00,100.42
1971.00,100.39
1970.00,100.38
1969.00,100.38
1968.00,100.36
1967.00,100.35
1966.00,100.35
1965.00,100.35
1964.00,100.36
1963.00,100.38
1962.00,100.39
1961.00,100.37
1960.00,100.36
1959.00,100.36
1958.00,100.37
1957.00,100.38
1956.00,100.38
1955.00,100.41
1954.00,100.43
1953.00,100.44
1952.00,100.42
1951.00,100.40
1950.00,100.39
1949.00,100.38
1948.00,100.37
1947.00,100.37
1946.00,100.37
1945.00,100.37
1944.00,100.38
1943.00,100.42
1942.00,100.46
1941.00,100.47
1940.00,100.46
1939.00,100.45
1938.00,100.44
1937.00,100.44
1936.00,100.43
1935.00,100.43
1934.00,100.43
1933.00,100.44
1932.00,100.44
1931.00,100.44
1930.00,100.44
1929.00,100.43
1928.00,100.43
1927.00,100.43
1926.00,100.44
1925.00,100.44
1924.00,100.44
1923.00,100.45
1922.00,100.45
1921.00,100.45
1920.00,100.43
1919.00,100.42
1918.00,100.42
1917.00,100.42
1916.00,100.41
1915.00,100.41
1914.00,100.42
1913.00,100.43
1912.00,100.43
1911.00,100.43
1910.00,100.43
1909.00,100.43
1908.00,100.41
1907.00,100.40
1906.00,100.40
1905.00,100.40
1904.00,100.40
1903.00,100.41
1902.00,100.42
1901.00,100.42
1900.00,100.42
1899.00,100.42
1898.00,100.42
1897.00,100.42
1896.00,100.42
1895.00,100.42
1894.00,100.42
1893.00,100.41
1892.00,100.40
1891.00,100.40
1890.00,100.41
1889.00,100.41
1888.00,100.40
1887.00,100.39
1886.00,100.40
1885.00,100.41
1884.00,100.42
1883.00,100.43
1882.00,100.43
1881.00,100.43
1880.00,100.43
1879.00,100.43
1878.00,100.44
1877.00,100.45
1876.00,100.45
1875.00,100.46
1874.00,100.46
1873.00,100.45
1872.00,100.43
1871.00,100.41
1870.00,100.42
1869.00,100.43
1868.00,100.43
1867.00,100.43
1866.00,100.43
1865.00,100.43
1864.00,100.42
1863.00,100.43
1862.00,100.44
1861.00,100.44
1860.00,100.44
1859.00,100.45
1858.00,100.45
1857.00,100.45
1856.00,100.44
1855.00,100.43
1854.00,100.44
1853.00,100.44
1852.00,100.43
1851.00,100.43
1850.00,100.43
1849.00,100.43
1848.00,100.42
1847.00,100.40
1846.00,100.39
1845.00,100.39
1844.00,100.39
1843.00,100.40
1842.00,100.42
1841.00,100.43
1840.00,100.44
1839.00,100.45
1838.00,100.45
1837.00,100.45
1836.00,100.44
1835.00,100.44
1834.00,100.45
1833.00,100.44
1832.00,100.44
1831.00,100.44
1830.00,100.46
1829.00,100.46
1828.00,100.44
1827.00,100.42
1826.00,100.42
1825.00,100.43
1824.00,100.43
1823.00,100.44
1822.00,100.45
1821.00,100.45
1820.00,100.45
1819.00,100.44
1818.00,100.45
1817.00,100.45
1816.00,100.44
1815.00,100.44
1814.00,100.45
1813.00,100.45
1812.00,100.45
1811.00,100.45
1810.00,100.45
1809.00,100.45
1808.00,100.45
1807.00,100.45
1806.00,100.45
1805.00,100.44
1804.00,100.43
1803.00,100.42
1802.00,100.43
1801.00,100.43
1800.00,100.44
1799.00,100.44
1798.00,100.45
1797.00,100.45
1796.00,100.44
1795.00,100.42
1794.00,100.41
1793.00,100.40
1792.00,100.40
1791.00,100.41
1790.00,100.42
1789.00,100.44
1788.00,100.44
1787.00,100.45
1786.00,100.45
1785.00,100.44
1784.00,100.43
1783.00,100.43
1782.00,100.44
1781.00,100.45
1780.00,100.45
1779.00,100.45
1778.00,100.45
1777.00,100.45
1776.00,100.44
1775.00,100.43
1774.00,100.43
1773.00,100.44
1772.00,100.44
1771.00,100.43
1770.00,100.43
1769.00,100.43
1768.00,100.43
1767.00,100.44
1766.00,100.45
1765.00,100.44
1764.00,100.42
1763.00,100.41
1762.00,100.42
1761.00,100.41
1760.00,100.40
1759.00,100.39
1758.00,100.39
1757.00,100.39
1756.00,100.36
1755.00,100.34
1754.00,100.31
1753.00,100.27
1752.00,100.23
1751.00,100.20
1750.00,100.19
1749.00,100.19
1748.00,100.18
1747.00,100.16
1746.00,100.14
1745.00,100.12
1744.00,100.09
1743.00,100.05
1742.00,100.01
1741.00,99.97
1740.00,99.92
1739.00,99.88
1738.00,99.86
1737.00,99.81
1736.00,99.76
1735.00,99.71
1734.00,99.68
1733.00,99.65
1732.00,99.62
1731.00,99.60
1730.00,99.60
1729.00,99.58
1728.00,99.55
1727.00,99.52
1726.00,99.50
1725.00,99.47
1724.00,99.43
1723.00,99.39
1722.00,99.35
1721.00,99.29
1720.00,99.22
1719.00,99.17
1718.00,99.14
1717.00,99.10
1716.00,99.04
1715.00,98.99
1714.00,98.94
1713.00,98.90
1712.00,98.84
1711.00,98.78
1710.00,98.73
1709.00,98.65
1708.00,98.56
1707.00,98.47
1706.00,98.38
1705.00,98.28
1704.00,98.17
1703.00,98.06
1702.00,97.94
1701.00,97.77
1700.00,97.58
1699.00,97.45
1698.00,97.38
1697.00,97.30
1696.00,97.16
1695.00,96.99
1694.00,96.84
1693.00,96.71
1692.00,96.58
1691.00,96.44
1690.00,96.27
1689.00,96.10
1688.00,95.92
1687.00,95.76
1686.00,95.58
1685.00,95.33
1684.00,95.03
1683.00,94.77
1682.00,94.57
1681.00,94.42
1680.00,94.25
1679.00,94.06
1678.00,93.86
1677.00,93.63
1676.00,93.35
1675.00,93.06
1674.00,92.83
1673.00,92.64
1672.00,92.46
1671.00,92.24
1670.00,91.99
1669.00,91.72
1668.00,91.47
1667.00,91.28
1666.00,91.12
1665.00,90.96
1664.00,90.76
1663.00,90.54
1662.00,90.34
1661.00,90.15
1660.00,89.98
1659.00,89.82
1658.00,89.68
1657.00,89.54
1656.00,89.41
1655.00,89.26
1654.00,89.11
1653.00,88.92
1652.00,88.74
1651.00,88.66
1650.00,88.64
1649.00,88.63
1648.00,88.59
1647.00,88.55
1646.00,88.52
1645.00,88.49
1644.00,88.48
1643.00,88.50
1642.00,88.54
1641.00,88.59
1640.00,88.63
1639.00,88.68
1638.00,88.75
1637.00,88.84
1636.00,88.96
1635.00,89.10
1634.00,89.24
1633.00,89.39
1632.00,89.55
1631.00,89.72
1630.00,89.91
1629.00,90.12
1628.00,90.35
1627.00,90.57
1626.00,90.78
1625.00,91.00
1624.00,91.24
1623.00,91.51
1622.00,91.78
1621.00,92.01
1620.00,92.22
1619.00,92.44
1618.00,92.71
1617.00,93.03
1616.00,93.34
1615.00,93.59
1614.00,93.80
1613.00,94.01
1612.00,94.23
1611.00,94.46
1610.00,94.71
1609.00,94.95
1608.00,95.19
1607.00,95.41
1606.00,95.61
1605.00,95.79
1604.00,95.97
1603.00,96.16
1602.00,96.35
1601.00,96.52
1600.00,96.69
1599.00,96.84
1598.00,96.99
1597.00,97.14
1596.00,97.28
1595.00,97.42
1594.00,97.56
1593.00,97.69
1592.00,97.82
1591.00,97.94
1590.00,98.06
1589.00,98.17
1588.00,98.27
1587.00,98.36
1586.00,98.46
1585.00,98.55
1584.00,98.64
1583.00,98.73
1582.00,98.82
1581.00,98.90
1580.00,98.97
1579.00,99.03
1578.00,99.10
1577.00,99.20
1576.00,99.30
1575.00,99.37
1574.00,99.42
1573.00,99.46
1572.00,99.50
1571.00,99.54
1570.00,99.61
1569.00,99.67
1568.00,99.71
1567.00,99.77
1566.00,99.82
1565.00,99.88
1564.00,99.92
1563.00,99.94
1562.00,99.95
1561.00,99.95
1560.00,99.96
1559.00,100.03
1558.00,100.07
1557.00,100.07
1556.00,100.11
1555.00,100.17
1554.00,100.22
1553.00,100.25
1552.00,100.26
1551.00,100.29
1550.00,100.33
1549.00,100.36
1548.00,100.36
1547.00,100.36
1546.00,100.36
1545.00,100.36
1544.00,100.36
1543.00,100.37
1542.00,100.38
1541.00,100.40
1540.00,100.43
1539.00,100.43
1538.00,100.43
1537.00,100.43
1536.00,100.43
1535.00,100.44
1534.00,100.45
1533.00,100.46
1532.00,100.45
1531.00,100.46
1530.00,100.47
1529.00,100.47
1528.00,100.46
1527.00,100.46
1526.00,100.46
1525.00,100.46
1524.00,100.45
1523.00,100.46
1522.00,100.47
1521.00,100.46
1520.00,100.43
1519.00,100.42
1518.00,100.43
1517.00,100.44
1516.00,100.44
1515.00,100.43
1514.00,100.42
1513.00,100.41
1512.00,100.38
1511.00,100.35
1510.00,100.33
1509.00,100.30
1508.00,100.25
1507.00,100.21
1506.00,100.13
1505.00,100.03
1504.00,100.00
1503.00,99.99
1502.00,99.97
1501.00,99.91
1500.00,99.83
1499.00,99.74
1498.00,99.67
1497.00,99.55
1496.00,99.41
1495.00,99.29
1494.00,99.17
1493.00,99.03
1492.00,98.87
1491.00,98.69
1490.00,98.51
1489.00,98.31
1488.00,98.09
1487.00,97.90
1486.00,97.70
1485.00,97.49
1484.00,97.27
1483.00,97.04
1482.00,96.79
1481.00,96.50
1480.00,96.20
1479.00,95.91
1478.00,95.60
1477.00,95.24
1476.00,94.87
1475.00,94.51
1474.00,94.11
1473.00,93.63
1472.00,93.11
1471.00,92.66
1470.00,92.29
1469.00,91.94
1468.00,91.58
1467.00,91.18
1466.00,90.74
1465.00,90.23
1464.00,89.75
1463.00,89.36
1462.00,89.04
1461.00,88.74
1460.00,88.44
1459.00,88.13
1458.00,87.77
1457.00,87.36
1456.00,87.04
1455.00,86.88
1454.00,86.81
1453.00,86.75
1452.00,86.69
1451.00,86.64
1450.00,86.59
1449.00,86.53
1448.00,86.48
1447.00,86.45
1446.00,86.41
1445.00,86.36
1444.00,86.29
1443.00,86.22
1442.00,86.13
1441.00,86.02
1440.00,85.91
1439.00,85.79
1438.00,85.64
1437.00,85.45
1436.00,85.27
1435.00,85.15
1434.00,85.07
1433.00,84.98
1432.00,84.88
1431.00,84.77
1430.00,84.66
1429.00,84.53
1428.00,84.43
1427.00,84.35
1426.00,84.29
1425.00,84.20
1424.00,84.12
1423.00,84.05
1422.00,84.00
1421.00,83.93
1420.00,83.86
1419.00,83.81
1418.00,83.79
1417.00,83.78
1416.00,83.80
1415.00,83.84
1414.00,83.88
1413.00,83.91
1412.00,83.96
1411.00,84.04
1410.00,84.13
1409.00,84.21
1408.00,84.31
1407.00,84.43
1406.00,84.58
1405.00,84.73
1404.00,84.91
1403.00,85.10
1402.00,85.30
1401.00,85.49
1400.00,85.69
1399.00,85.92
1398.00,86.14
1397.00,86.34
1396.00,86.55
1395.00,86.77
1394.00,86.99
1393.00,87.18
1392.00,87.35
1391.00,87.51
1390.00,87.65
1389.00,87.76
1388.00,87.86
1387.00,87.94
1386.00,88.00
1385.00,88.04
1384.00,88.05
1383.00,88.05
1382.00,88.02
1381.00,87.96
1380.00,87.89
1379.00,87.81
1378.00,87.73
1377.00,87.64
1376.00,87.54
1375.00,87.45
1374.00,87.35
1373.00,87.25
1372.00,87.16
1371.00,87.09
1370.00,87.03
1369.00,86.95
1368.00,86.88
1367.00,86.81
1366.00,86.76
1365.00,86.70
1364.00,86.63
1363.00,86.58
1362.00,86.53
1361.00,86.49
1360.00,86.45
1359.00,86.42
1358.00,86.39
1357.00,86.35
1356.00,86.31
1355.00,86.26
1354.00,86.20
1353.00,86.12
1352.00,86.05
1351.00,85.97
1350.00,85.90
1349.00,85.82
1348.00,85.74
1347.00,85.67
1346.00,85.62
1345.00,85.59
1344.00,85.58
1343.00,85.61
1342.00,85.67
1341.00,85.76
1340.00,85.89
1339.00,86.05
1338.00,86.23
1337.00,86.42
1336.00,86.64
1335.00,86.88
1334.00,87.14
1333.00,87.39
1332.00,87.65
1331.00,87.91
1330.00,88.16
1329.00,88.40
1328.00,88.63
1327.00,88.86
1326.00,89.08
1325.00,89.29
1324.00,89.50
1323.00,89.70
1322.00,89.89
1321.00,90.06
1320.00,90.24
1319.00,90.42
1318.00,90.60
1317.00,90.77
1316.00,90.94
1315.00,91.11
1314.00,91.29
1313.00,91.47
1312.00,91.66
1311.00,91.86
1310.00,92.06
1309.00,92.25
1308.00,92.44
1307.00,92.63
1306.00,92.82
1305.00,93.00
1304.00,93.18
1303.00,93.36
1302.00,93.53
1301.00,93.69
1300.00,93.83
1299.00,93.97
1298.00,94.10
1297.00,94.21
1296.00,94.30
1295.00,94.39
1294.00,94.46
1293.00,94.52
1292.00,94.57
1291.00,94.60
1290.00,94.63
1289.00,94.64
1288.00,94.64
1287.00,94.65
1286.00,94.64
1285.00,94.62
1284.00,94.60
1283.00,94.58
1282.00,94.54
1281.00,94.50
1280.00,94.44
1279.00,94.38
1278.00,94.32
1277.00,94.24
1276.00,94.14
1275.00,94.03
1274.00,93.91
1273.00,93.76
1272.00,93.60
1271.00,93.43
1270.00,93.24
1269.00,93.04
1268.00,92.84
1267.00,92.63
1266.00,92.44
1265.00,92.25
1264.00,92.08
1263.00,91.94
1262.00,91.82
1261.00,91.72
1260.00,91.65
1259.00,91.60
1258.00,91.58
1257.00,91.57
1256.00,91.58
1255.00,91.61
1254.00,91.65
1253.00,91.69
1252.00,91.73
1251.00,91.78
1250.00,91.84
1249.00,91.90
1248.00,91.97
1247.00,92.04
1246.00,92.12
1245.00,92.19
1244.00,92.27
1243.00,92.35
1242.00,92.45
1241.00,92.55
1240.00,92.66
1239.00,92.77
1238.00,92.89
1237.00,93.01
1236.00,93.13
1235.00,93.28
1234.00,93.43
1233.00,93.59
1232.00,93.77
1231.00,93.96
1230.00,94.16
1229.00,94.38
1228.00,94.61
1227.00,94.87
1226.00,95.15
1225.00,95.45
1224.00,95.76
1223.00,96.08
1222.00,96.41
1221.00,96.74
1220.00,97.07
1219.00,97.39
1218.00,97.71
1217.00,98.03
1216.00,98.32
1215.00,98.61
1214.00,98.86
1213.00,99.08
1212.00,99.28
1211.00,99.44
1210.00,99.58
1209.00,99.68
1208.00,99.75
1207.00,99.78
1206.00,99.79
1205.00,99.77
1204.00,99.72
1203.00,99.67
1202.00,99.61
1201.00,99.52
1200.00,99.43
1199.00,99.34
1198.00,99.24
1197.00,99.14
1196.00,99.04
1195.00,98.97
1194.00,98.90
1193.00,98.85
1192.00,98.79
1191.00,98.75
1190.00,98.71
1189.00,98.68
1188.00,98.66
1187.00,98.66
1186.00,98.68
1185.00,98.71
1184.00,98.77
1183.00,98.84
1182.00,98.92
1181.00,99.01
1180.00,99.11
1179.00,99.21
1178.00,99.29
1177.00,99.36
1176.00,99.40
1175.00,99.40
1174.00,99.36
1173.00,99.24
1172.00,99.04
1171.00,98.76
1170.00,98.40
1169.00,97.95
1168.00,97.42
1167.00,96.80
1166.00,96.10
1165.00,95.31
1164.00,94.47
1163.00,93.58
1162.00,92.66
1161.00,91.72
1160.00,90.77
1159.00,89.84
1158.00,88.94
1157.00,88.07
1156.00,87.24
1155.00,86.48
1154.00,85.80
1153.00,85.18
1152.00,84.65
1151.00,84.21
1150.00,83.87
1149.00,83.63
1148.00,83.47
1147.00,83.41
1146.00,83.44
1145.00,83.54
1144.00,83.70
1143.00,83.91
1142.00,84.16
1141.00,84.41
1140.00,84.66
1139.00,84.90
1138.00,85.11
1137.00,85.28
1136.00,85.40
1135.00,85.50
1134.00,85.57
1133.00,85.61
1132.00,85.62
1131.00,85.61
1130.00,85.58
1129.00,85.52
1128.00,85.44
1127.00,85.34
1126.00,85.22
1125.00,85.04
1124.00,84.82
1123.00,84.56
1122.00,84.27
1121.00,83.90
1120.00,83.47
1119.00,82.97
1118.00,82.40
1117.00,81.74
1116.00,80.98
1115.00,80.16
1114.00,79.27
1113.00,78.32
1112.00,77.31
1111.00,76.28
1110.00,75.27
1109.00,74.26
1108.00,73.29
1107.00,72.39
1106.00,71.59
1105.00,70.90
1104.00,70.32
1103.00,69.91
1102.00,69.65
1101.00,69.52
1100.00,69.50
1099.00,69.60
1098.00,69.76
1097.00,69.91
1096.00,70.00
1095.00,70.01
1094.00,69.88
1093.00,69.57
1092.00,69.07
1091.00,68.39
1090.00,67.55
1089.00,66.55
1088.00,65.42
1087.00,64.22
1086.00,62.99
1085.00,61.73
1084.00,60.46
1083.00,59.27
1082.00,58.17
1081.00,57.15
1080.00,56.23
1079.00,55.43
1078.00,54.78
1077.00,54.21
1076.00,53.72
1075.00,53.32
1074.00,52.97
1073.00,52.61
1072.00,52.20
1071.00,51.77
1070.00,51.29
1069.00,50.72
1068.00,50.08
1067.00,49.39
1066.00,48.67
1065.00,47.89
1064.00,47.07
1063.00,46.25
1062.00,45.46
1061.00,44.66
1060.00,43.87
1059.00,43.12
1058.00,42.43
1057.00,41.76
1056.00,41.11
1055.00,40.55
1054.00,40.09
1053.00,39.70
1052.00,39.41
1051.00,39.24
1050.00,39.21
1049.00,39.25
1048.00,39.32
1047.00,39.46
1046.00,39.62
1045.00,39.75
1044.00,39.83
1043.00,39.87
1042.00,39.85
1041.00,39.73
1040.00,39.51
1039.00,39.22
1038.00,38.89
1037.00,38.48
1036.00,38.01
1035.00,37.52
1034.00,37.03
1033.00,36.52
1032.00,36.01
1031.00,35.56
1030.00,35.19
1029.00,34.88
1028.00,34.65
1027.00,34.52
1026.00,34.52
1025.00,34.60
1024.00,34.76
1023.00,35.02
1022.00,35.37
1021.00,35.74
1020.00,36.11
1019.00,36.50
1018.00,36.88
1017.00,37.23
1016.00,37.53
1015.00,37.85
1014.00,38.20
1013.00,38.58
1012.00,39.02
1011.00,39.58
1010.00,40.29
1009.00,41.13
1008.00,42.11
1007.00,43.26
1006.00,44.59
1005.00,46.04
1004.00,47.57
1003.00,49.16
1002.00,50.77
1001.00,52.31
1000.00,53.73
999.00,55.00
998.00,56.10
997.00,56.99
996.00,57.68
995.00,58.22
994.00,58.65
993.00,58.98
992.00,59.28
991.00,59.59
990.00,59.96
989.00,60.35
988.00,60.77
987.00,61.21
986.00,61.66
985.00,62.08
984.00,62.44
983.00,62.77
982.00,63.10
981.00,63.45
980.00,63.88
979.00,64.46
978.00,65.26
977.00,66.29
976.00,67.53
975.00,68.96
974.00,70.49
973.00,71.99
972.00,73.34
971.00,74.46
970.00,75.31
969.00,75.89
968.00,76.28
967.00,76.60
966.00,76.97
965.00,77.50
964.00,78.32
963.00,79.49
962.00,81.02
961.00,82.86
960.00,84.90
959.00,87.06
958.00,89.20
957.00,91.23
956.00,93.06
955.00,94.68
954.00,96.05
953.00,97.18
952.00,98.09
951.00,98.83
950.00,99.41
949.00,99.85
948.00,100.18
947.00,100.41
946.00,100.56
945.00,100.65
944.00,100.67
943.00,100.64
942.00,100.57
941.00,100.47
940.00,100.34
939.00,100.19
938.00,100.02
937.00,99.83
936.00,99.61
935.00,99.39
934.00,99.15
933.00,98.89
932.00,98.59
931.00,98.26
930.00,97.89
929.00,97.47
928.00,97.00
927.00,96.50
926.00,95.99
925.00,95.46
924.00,94.94
923.00,94.47
922.00,94.07
921.00,93.76
920.00,93.57
919.00,93.52
918.00,93.61
917.00,93.83
916.00,94.15
915.00,94.57
914.00,95.09
913.00,95.64
912.00,96.20
911.00,96.74
910.00,97.22
909.00,97.62
908.00,97.92
907.00,98.13
906.00,98.25
905.00,98.28
904.00,98.24
903.00,98.18
902.00,98.10
901.00,98.00
900.00,97.91
899.00,97.85
898.00,97.83
897.00,97.86
896.00,97.93
895.00,98.07
894.00,98.26
893.00,98.49
892.00,98.77
891.00,99.08
890.00,99.43
889.00,99.78
888.00,100.10
887.00,100.39
886.00,100.64
885.00,100.80
884.00,100.88
883.00,100.89
882.00,100.80
881.00,100.60
880.00,100.25
879.00,99.77
878.00,99.18
877.00,98.49
876.00,97.72
875.00,96.94
874.00,96.18
873.00,95.41
872.00,94.66
871.00,93.97
870.00,93.37
869.00,92.88
868.00,92.50
867.00,92.28
866.00,92.20
865.00,92.26
864.00,92.44
863.00,92.77
862.00,93.23
861.00,93.79
860.00,94.42
859.00,95.11
858.00,95.84
857.00,96.57
856.00,97.28
855.00,97.95
854.00,98.58
853.00,99.12
852.00,99.57
851.00,99.94
850.00,100.24
849.00,100.46
848.00,100.59
847.00,100.65
846.00,100.68
845.00,100.67
844.00,100.62
843.00,100.57
842.00,100.53
841.00,100.47
840.00,100.41
839.00,100.34
838.00,100.26
837.00,100.13
836.00,99.95
835.00,99.73
834.00,99.46
833.00,99.10
832.00,98.64
831.00,98.10
830.00,97.46
829.00,96.70
828.00,95.80
827.00,94.81
826.00,93.75
825.00,92.58
824.00,91.36
823.00,90.18
822.00,89.12
821.00,88.21
820.00,87.49
819.00,87.03
818.00,86.83
817.00,86.89
816.00,87.21
815.00,87.80
814.00,88.66
813.00,89.69
812.00,90.85
811.00,92.09
810.00,93.35
809.00,94.54
808.00,95.65
807.00,96.68
806.00,97.61
805.00,98.40
804.00,99.03
803.00,99.56
802.00,100.01
801.00,100.37
800.00,100.63
799.00,100.81
798.00,100.92
797.00,100.93
796.00,100.83
795.00,100.62
794.00,100.31
793.00,99.85
792.00,99.24
791.00,98.48
790.00,97.58
789.00,96.50
788.00,95.24
787.00,93.88
786.00,92.49
785.00,91.08
784.00,89.70
783.00,88.44
782.00,87.36
781.00,86.47
780.00,85.80
779.00,85.37
778.00,85.20
777.00,85.23
776.00,85.43
775.00,85.81
774.00,86.36
773.00,87.04
772.00,87.81
771.00,88.67
770.00,89.59
769.00,90.50
768.00,91.35
767.00,92.19
766.00,93.01
765.00,93.79
764.00,94.50
763.00,95.17
762.00,95.79
761.00,96.33
760.00,96.81
759.00,97.24
758.00,97.64
757.00,97.97
756.00,98.24
755.00,98.49
754.00,98.74
753.00,98.96
752.00,99.14
751.00,99.31
750.00,99.46
749.00,99.58
748.00,99.65
747.00,99.71
746.00,99.80
745.00,99.88
744.00,99.96
743.00,100.06
742.00,100.17
741.00,100.24
740.00,100.27
739.00,100.31
738.00,100.37
737.00,100.43
736.00,100.46
735.00,100.49
734.00,100.53
733.00,100.53
732.00,100.49
731.00,100.47
730.00,100.50
729.00,100.51
728.00,100.48
727.00,100.44
726.00,100.41
725.00,100.36
724.00,100.27
723.00,100.18
722.00,100.09
721.00,99.95
720.00,99.76
719.00,99.58
718.00,99.42
717.00,99.22
716.00,98.97
715.00,98.72
714.00,98.49
713.00,98.22
712.00,97.90
711.00,97.58
710.00,97.28
709.00,96.97
708.00,96.64
707.00,96.37
706.00,96.19
705.00,96.04
704.00,95.92
703.00,95.87
702.00,95.92
701.00,95.98
700.00,96.04
699.00,96.16
698.00,96.36
697.00,96.56
696.00,96.72
695.00,96.86
694.00,97.03
693.00,97.17
692.00,97.28
691.00,97.44
690.00,97.67
689.00,97.86
688.00,97.99
687.00,98.15
686.00,98.39
685.00,98.61
684.00,98.74
683.00,98.85
682.00,98.97
681.00,99.04
680.00,99.08
679.00,99.16
678.00,99.30
677.00,99.38
676.00,99.39
675.00,99.47
674.00,99.64
673.00,99.80
672.00,99.93
671.00,100.13
670.00,100.45
669.00,100.67
668.00,100.52
667.00,100.24
666.00,100.16
665.00,100.21
664.00,100.25
663.00,100.33
662.00,100.47
661.00,100.56
660.00,100.55
659.00,100.53
658.00,100.56
657.00,100.53
656.00,100.40
655.00,100.34
654.00,100.38
653.00,100.35
652.00,100.16
651.00,100.00
650.00,99.99
