Created as New Dataset,Sample 005 By iruser Date Tuesday, March 24 2026
cm-1,%T
4200.00,99.53
4199.00,99.52
4198.00,99.52
4197.00,99.52
4196.00,99.52
4195.00,99.52
4194.00,99.52
4193.00,99.52
4192.00,99.52
4191.00,99.53
4190.00,99.53
4189.00,99.53
4188.00,99.53
4187.00,99.52
4186.00,99.51
4185.00,99.51
4184.00,99.50
4183.00,99.50
4182.00,99.50
4181.00,99.49
4180.00,99.49
4179.00,99.49
4178.00,99.50
4177.00,99.50
4176.00,99.51
4175.00,99.52
4174.00,99.52
4173.00,99.52
4172.00,99.51
4171.00,99.51
4170.00,99.51
4169.00,99.50
4168.00,99.50
4167.00,99.50
4166.00,99.49
4165.00,99.49
4164.00,99.50
4163.00,99.50
4162.00,99.50
4161.00,99.49
4160.00,99.49
4159.00,99.49
4158.00,99.49
4157.00,99.49
4156.00,99.49
4155.00,99.49
4154.00,99.49
4153.00,99.49
4152.00,99.49
4151.00,99.49
4150.00,99.49
4149.00,99.48
4148.00,99.48
4147.00,99.48
4146.00,99.49
4145.00,99.49
4144.00,99.50
4143.00,99.50
4142.00,99.50
4141.00,99.50
4140.00,99.49
4139.00,99.49
4138.00,99.48
4137.00,99.48
4136.00,99.48
4135.00,99.48
4134.00,99.48
4133.00,99.48
4132.00,99.49
4131.00,99.50
4130.00,99.50
4129.00,99.49
4128.00,99.49
4127.00,99.48
4126.00,99.48
4125.00,99.48
4124.00,99.48
4123.00,99.48
4122.00,99.47
4121.00,99.46
4120.00,99.46
4119.00,99.46
4118.00,99.46
4117.00,99.46
4116.00,99.46
4115.00,99.46
4114.00,99.46
4113.00,99.46
4112.00,99.46
4111.00,99.46
4110.00,99.45
4109.00,99.45
4108.00,99.44
4107.00,99.43
4106.00,99.43
4105.00,99.43
4104.00,99.44
4103.00,99.44
4102.00,99.45
4101.00,99.45
4100.00,99.44
4099.00,99.43
4098.00,99.42
4097.00,99.41
4096.00,99.41
4095.00,99.41
4094.00,99.41
4093.00,99.41
4092.00,99.41
4091.00,99.41
4090.00,99.41
4089.00,99.42
4088.00,99.42
4087.00,99.42
4086.00,99.42
4085.00,99.42
4084.00,99.42
4083.00,99.41
4082.00,99.41
4081.00,99.40
4080.00,99.40
4079.00,99.40
4078.00,99.41
4077.00,99.41
4076.00,99.41
4075.00,99.40
4074.00,99.39
4073.00,99.39
4072.00,99.38
4071.00,99.38
4070.00,99.38
4069.00,99.37
4068.00,99.37
4067.00,99.37
4066.00,99.37
4065.00,99.37
4064.00,99.37
4063.00,99.37
4062.00,99.36
4061.00,99.36
4060.00,99.35
4059.00,99.35
4058.00,99.35
4057.00,99.35
4056.00,99.35
4055.00,99.36
4054.00,99.36
4053.00,99.35
4052.00,99.35
4051.00,99.34
4050.00,99.33
4049.00,99.32
4048.00,99.32
4047.00,99.32
4046.00,99.32
4045.00,99.32
4044.00,99.32
4043.00,99.32
4042.00,99.32
4041.00,99.31
4040.00,99.31
4039.00,99.31
4038.00,99.31
4037.00,99.31
4036.00,99.32
4035.00,99.31
4034.00,99.31
4033.00,99.31
4032.00,99.31
4031.00,99.31
4030.00,99.31
4029.00,99.30
4028.00,99.30
4027.00,99.30
4026.00,99.30
4025.00,99.30
4024.00,99.29
4023.00,99.29
4022.00,99.29
4021.00,99.29
4020.00,99.30
4019.00,99.30
4018.00,99.30
4017.00,99.29
4016.00,99.29
4015.00,99.29
4014.00,99.29
4013.00,99.28
4012.00,99.28
4011.00,99.28
4010.00,99.28
4009.00,99.28
4008.00,99.28
4007.00,99.28
4006.00,99.28
4005.00,99.28
4004.00,99.29
4003.00,99.29
4002.00,99.30
4001.00,99.30
4000.00,99.29
3999.00,99.29
3998.00,99.29
3997.00,99.29
3996.00,99.28
3995.00,99.28
3994.00,99.28
3993.00,99.28
3992.00,99.29
3991.00,99.30
3990.00,99.30
3989.00,99.30
3988.00,99.31
3987.00,99.31
3986.00,99.31
3985.00,99.31
3984.00,99.31
3983.00,99.31
3982.00,99.31
3981.00,99.31
3980.00,99.31
3979.00,99.30
3978.00,99.30
3977.00,99.30
3976.00,99.31
3975.00,99.31
3974.00,99.32
3973.00,99.33
3972.00,99.33
3971.00,99.33
3970.00,99.33
3969.00,99.33
3968.00,99.33
3967.00,99.34
3966.00,99.34
3965.00,99.35
3964.00,99.35
3963.00,99.35
3962.00,99.35
3961.00,99.35
3960.00,99.35
3959.00,99.35
3958.00,99.35
3957.00,99.35
3956.00,99.35
3955.00,99.35
3954.00,99.35
3953.00,99.35
3952.00,99.36
3951.00,99.36
3950.00,99.36
3949.00,99.36
3948.00,99.36
3947.00,99.36
3946.00,99.36
3945.00,99.36
3944.00,99.37
3943.00,99.37
3942.00,99.37
3941.00,99.38
3940.00,99.39
3939.00,99.39
3938.00,99.40
3937.00,99.41
3936.00,99.41
3935.00,99.41
3934.00,99.41
3933.00,99.41
3932.00,99.41
3931.00,99.40
3930.00,99.40
3929.00,99.40
3928.00,99.40
3927.00,99.39
3926.00,99.39
3925.00,99.40
3924.00,99.40
3923.00,99.41
3922.00,99.42
3921.00,99.42
3920.00,99.43
3919.00,99.43
3918.00,99.44
3917.00,99.44
3916.00,99.44
3915.00,99.44
3914.00,99.44
3913.00,99.44
3912.00,99.43
3911.00,99.43
3910.00,99.43
3909.00,99.43
3908.00,99.44
3907.00,99.44
3906.00,99.45
3905.00,99.46
3904.00,99.47
3903.00,99.47
3902.00,99.47
3901.00,99.47
3900.00,99.47
3899.00,99.47
3898.00,99.47
3897.00,99.48
3896.00,99.48
3895.00,99.48
3894.00,99.48
3893.00,99.48
3892.00,99.48
3891.00,99.49
3890.00,99.49
3889.00,99.50
3888.00,99.50
3887.00,99.50
3886.00,99.51
3885.00,99.51
3884.00,99.50
3883.00,99.49
3882.00,99.49
3881.00,99.49
3880.00,99.50
3879.00,99.50
3878.00,99.50
3877.00,99.49
3876.00,99.49
3875.00,99.48
3874.00,99.48
3873.00,99.48
3872.00,99.48
3871.00,99.48
3870.00,99.49
3869.00,99.49
3868.00,99.48
3867.00,99.48
3866.00,99.48
3865.00,99.49
3864.00,99.50
3863.00,99.50
3862.00,99.50
3861.00,99.50
3860.00,99.51
3859.00,99.51
3858.00,99.52
3857.00,99.52
3856.00,99.51
3855.00,99.51
3854.00,99.51
3853.00,99.52
3852.00,99.51
3851.00,99.51
3850.00,99.51
3849.00,99.51
3848.00,99.51
3847.00,99.51
3846.00,99.51
3845.00,99.51
3844.00,99.51
3843.00,99.51
3842.00,99.51
3841.00,99.51
3840.00,99.51
3839.00,99.51
3838.00,99.51
3837.00,99.51
3836.00,99.51
3835.00,99.51
3834.00,99.51
3833.00,99.51
3832.00,99.51
3831.00,99.51
3830.00,99.51
3829.00,99.50
3828.00,99.50
3827.00,99.50
3826.00,99.51
3825.00,99.51
3824.00,99.51
3823.00,99.51
3822.00,99.51
3821.00,99.52
3820.00,99.52
3819.00,99.52
3818.00,99.52
3817.00,99.53
3816.00,99.53
3815.00,99.53
3814.00,99.52
3813.00,99.52
3812.00,99.52
3811.00,99.52
3810.00,99.51
3809.00,99.51
3808.00,99.50
3807.00,99.50
3806.00,99.51
3805.00,99.51
3804.00,99.51
3803.00,99.51
3802.00,99.51
3801.00,99.51
3800.00,99.51
3799.00,99.51
3798.00,99.52
3797.00,99.52
3796.00,99.53
3795.00,99.52
3794.00,99.52
3793.00,99.51
3792.00,99.51
3791.00,99.50
3790.00,99.50
3789.00,99.50
3788.00,99.50
3787.00,99.49
3786.00,99.49
3785.00,99.49
3784.00,99.50
3783.00,99.50
3782.00,99.50
3781.00,99.51
3780.00,99.51
3779.00,99.52
3778.00,99.52
3777.00,99.51
3776.00,99.50
3775.00,99.50
3774.00,99.50
3773.00,99.50
3772.00,99.49
3771.00,99.49
3770.00,99.49
3769.00,99.49
3768.00,99.48
3767.00,99.48
3766.00,99.48
3765.00,99.48
3764.00,99.48
3763.00,99.48
3762.00,99.48
3761.00,99.48
3760.00,99.48
3759.00,99.47
3758.00,99.46
3757.00,99.46
3756.00,99.46
3755.00,99.46
3754.00,99.46
3753.00,99.46
3752.00,99.46
3751.00,99.47
3750.00,99.48
3749.00,99.48
3748.00,99.49
3747.00,99.48
3746.00,99.47
3745.00,99.47
3744.00,99.47
3743.00,99.46
3742.00,99.45
3741.00,99.45
3740.00,99.44
3739.00,99.43
3738.00,99.42
3737.00,99.41
3736.00,99.42
3735.00,99.42
3734.00,99.43
3733.00,99.43
3732.00,99.42
3731.00,99.41
3730.00,99.41
3729.00,99.40
3728.00,99.40
3727.00,99.41
3726.00,99.41
3725.00,99.41
3724.00,99.40
3723.00,99.40
3722.00,99.39
3721.00,99.39
3720.00,99.38
3719.00,99.38
3718.00,99.37
3717.00,99.36
3716.00,99.35
3715.00,99.33
3714.00,99.32
3713.00,99.31
3712.00,99.30
3711.00,99.30
3710.00,99.30
3709.00,99.29
3708.00,99.28
3707.00,99.28
3706.00,99.27
3705.00,99.26
3704.00,99.25
3703.00,99.24
3702.00,99.24
3701.00,99.22
3700.00,99.21
3699.00,99.19
3698.00,99.17
3697.00,99.16
3696.00,99.15
3695.00,99.13
3694.00,99.12
3693.00,99.09
3692.00,99.07
3691.00,99.06
3690.00,99.04
3689.00,99.03
3688.00,99.01
3687.00,98.99
3686.00,98.96
3685.00,98.94
3684.00,98.91
3683.00,98.89
3682.00,98.86
3681.00,98.83
3680.00,98.81
3679.00,98.78
3678.00,98.74
3677.00,98.69
3676.00,98.64
3675.00,98.60
3674.00,98.57
3673.00,98.54
3672.00,98.50
3671.00,98.45
3670.00,98.40
3669.00,98.36
3668.00,98.31
3667.00,98.26
3666.00,98.21
3665.00,98.16
3664.00,98.11
3663.00,98.06
3662.00,98.01
3661.00,97.95
3660.00,97.89
3659.00,97.83
3658.00,97.77
3657.00,97.70
3656.00,97.64
3655.00,97.58
3654.00,97.52
3653.00,97.46
3652.00,97.38
3651.00,97.29
3650.00,97.19
3649.00,97.10
3648.00,97.00
3647.00,96.92
3646.00,96.84
3645.00,96.77
3644.00,96.69
3643.00,96.61
3642.00,96.52
3641.00,96.42
3640.00,96.34
3639.00,96.25
3638.00,96.17
3637.00,96.08
3636.00,95.98
3635.00,95.88
3634.00,95.79
3633.00,95.70
3632.00,95.61
3631.00,95.52
3630.00,95.41
3629.00,95.28
3628.00,95.16
3627.00,95.05
3626.00,94.95
3625.00,94.85
3624.00,94.75
3623.00,94.64
3622.00,94.53
3621.00,94.40
3620.00,94.27
3619.00,94.14
3618.00,94.02
3617.00,93.91
3616.00,93.80
3615.00,93.69
3614.00,93.58
3613.00,93.46
3612.00,93.35
3611.00,93.23
3610.00,93.09
3609.00,92.95
3608.00,92.81
3607.00,92.67
3606.00,92.54
3605.00,92.42
3604.00,92.30
3603.00,92.16
3602.00,92.02
3601.00,91.87
3600.00,91.73
3599.00,91.58
3598.00,91.44
3597.00,91.30
3596.00,91.15
3595.00,91.00
3594.00,90.85
3593.00,90.71
3592.00,90.58
3591.00,90.45
3590.00,90.30
3589.00,90.13
3588.00,89.94
3587.00,89.75
3586.00,89.57
3585.00,89.42
3584.00,89.27
3583.00,89.12
3582.00,88.96
3581.00,88.80
3580.00,88.64
3579.00,88.47
3578.00,88.30
3577.00,88.13
3576.00,87.96
3575.00,87.78
3574.00,87.62
3573.00,87.46
3572.00,87.31
3571.00,87.15
3570.00,86.98
3569.00,86.79
3568.00,86.59
3567.00,86.38
3566.00,86.18
3565.00,85.99
3564.00,85.82
3563.00,85.65
3562.00,85.48
3561.00,85.30
3560.00,85.11
3559.00,84.93
3558.00,84.75
3557.00,84.57
3556.00,84.39
3555.00,84.20
3554.00,84.01
3553.00,83.81
3552.00,83.62
3551.00,83.43
3550.00,83.25
3549.00,83.07
3548.00,82.88
3547.00,82.67
3546.00,82.47
3545.00,82.27
3544.00,82.07
3543.00,81.89
3542.00,81.71
3541.00,81.53
3540.00,81.34
3539.00,81.15
3538.00,80.95
3537.00,80.76
3536.00,80.56
3535.00,80.37
3534.00,80.18
3533.00,79.99
3532.00,79.80
3531.00,79.61
3530.00,79.42
3529.00,79.22
3528.00,79.02
3527.00,78.82
3526.00,78.62
3525.00,78.42
3524.00,78.22
3523.00,78.02
3522.00,77.82
3521.00,77.63
3520.00,77.44
3519.00,77.25
3518.00,77.06
3517.00,76.86
3516.00,76.67
3515.00,76.48
3514.00,76.29
3513.00,76.10
3512.00,75.91
3511.00,75.72
3510.00,75.52
3509.00,75.33
3508.00,75.14
3507.00,74.95
3506.00,74.77
3505.00,74.57
3504.00,74.37
3503.00,74.17
3502.00,73.97
3501.00,73.78
3500.00,73.60
3499.00,73.41
3498.00,73.22
3497.00,73.03
3496.00,72.84
3495.00,72.65
3494.00,72.46
3493.00,72.27
3492.00,72.08
3491.00,71.90
3490.00,71.71
3489.00,71.52
3488.00,71.32
3487.00,71.13
3486.00,70.95
3485.00,70.77
3484.00,70.59
3483.00,70.40
3482.00,70.21
3481.00,70.02
3480.00,69.84
3479.00,69.66
3478.00,69.48
3477.00,69.30
3476.00,69.13
3475.00,68.95
3474.00,68.77
3473.00,68.59
3472.00,68.41
3471.00,68.22
3470.00,68.04
3469.00,67.86
3468.00,67.68
3467.00,67.50
3466.00,67.33
3465.00,67.16
3464.00,66.98
3463.00,66.81
3462.00,66.64
3461.00,66.46
3460.00,66.29
3459.00,66.12
3458.00,65.95
3457.00,65.78
3456.00,65.61
3455.00,65.43
3454.00,65.26
3453.00,65.09
3452.00,64.93
3451.00,64.76
3450.00,64.60
3449.00,64.43
3448.00,64.26
3447.00,64.09
3446.00,63.92
3445.00,63.76
3444.00,63.60
3443.00,63.44
3442.00,63.27
3441.00,63.11
3440.00,62.95
3439.00,62.78
3438.00,62.62
3437.00,62.46
3436.00,62.30
3435.00,62.15
3434.00,62.00
3433.00,61.84
3432.00,61.68
3431.00,61.53
3430.00,61.37
3429.00,61.22
3428.00,61.08
3427.00,60.93
3426.00,60.79
3425.00,60.64
3424.00,60.49
3423.00,60.35
3422.00,60.20
3421.00,60.05
3420.00,59.90
3419.00,59.76
3418.00,59.62
3417.00,59.48
3416.00,59.33
3415.00,59.19
3414.00,59.04
3413.00,58.90
3412.00,58.76
3411.00,58.62
3410.00,58.49
3409.00,58.36
3408.00,58.23
3407.00,58.11
3406.00,57.98
3405.00,57.84
3404.00,57.70
3403.00,57.56
3402.00,57.43
3401.00,57.30
3400.00,57.18
3399.00,57.06
3398.00,56.94
3397.00,56.81
3396.00,56.69
3395.00,56.57
3394.00,56.45
3393.00,56.33
3392.00,56.21
3391.00,56.10
3390.00,55.99
3389.00,55.88
3388.00,55.78
3387.00,55.67
3386.00,55.56
3385.00,55.45
3384.00,55.34
3383.00,55.23
3382.00,55.12
3381.00,55.02
3380.00,54.92
3379.00,54.82
3378.00,54.72
3377.00,54.63
3376.00,54.53
3375.00,54.44
3374.00,54.34
3373.00,54.24
3372.00,54.14
3371.00,54.04
3370.00,53.95
3369.00,53.87
3368.00,53.79
3367.00,53.71
3366.00,53.63
3365.00,53.55
3364.00,53.47
3363.00,53.39
3362.00,53.31
3361.00,53.23
3360.00,53.15
3359.00,53.08
3358.00,53.01
3357.00,52.94
3356.00,52.87
3355.00,52.80
3354.00,52.72
3353.00,52.65
3352.00,52.58
3351.00,52.52
3350.00,52.46
3349.00,52.40
3348.00,52.34
3347.00,52.28
3346.00,52.22
3345.00,52.15
3344.00,52.09
3343.00,52.03
3342.00,51.97
3341.00,51.91
3340.00,51.85
3339.00,51.80
3338.00,51.75
3337.00,51.70
3336.00,51.66
3335.00,51.62
3334.00,51.58
3333.00,51.53
3332.00,51.48
3331.00,51.44
3330.00,51.40
3329.00,51.35
3328.00,51.31
3327.00,51.27
3326.00,51.23
3325.00,51.19
3324.00,51.15
3323.00,51.12
3322.00,51.08
3321.00,51.05
3320.00,51.01
3319.00,50.98
3318.00,50.95
3317.00,50.92
3316.00,50.89
3315.00,50.87
3314.00,50.84
3313.00,50.80
3312.00,50.77
3311.00,50.74
3310.00,50.70
3309.00,50.68
3308.00,50.65
3307.00,50.62
3306.00,50.60
3305.00,50.59
3304.00,50.57
3303.00,50.55
3302.00,50.54
3301.00,50.52
3300.00,50.50
3299.00,50.48
3298.00,50.46
3297.00,50.44
3296.00,50.42
3295.00,50.40
3294.00,50.39
3293.00,50.38
3292.00,50.37
3291.00,50.37
3290.00,50.36
3289.00,50.35
3288.00,50.34
3287.00,50.33
3286.00,50.32
3285.00,50.32
3284.00,50.31
3283.00,50.31
3282.00,50.30
3281.00,50.30
3280.00,50.30
3279.00,50.29
3278.00,50.29
3277.00,50.29
3276.00,50.28
3275.00,50.28
3274.00,50.28
3273.00,50.29
3272.00,50.29
3271.00,50.30
3270.00,50.32
3269.00,50.33
3268.00,50.35
3267.00,50.36
3266.00,50.38
3265.00,50.39
3264.00,50.41
3263.00,50.42
3262.00,50.44
3261.00,50.46
3260.00,50.48
3259.00,50.50
3258.00,50.53
3257.00,50.55
3256.00,50.57
3255.00,50.60
3254.00,50.63
3253.00,50.66
3252.00,50.69
3251.00,50.72
3250.00,50.75
3249.00,50.78
3248.00,50.82
3247.00,50.86
3246.00,50.90
3245.00,50.95
3244.00,50.99
3243.00,51.04
3242.00,51.09
3241.00,51.14
3240.00,51.19
3239.00,51.24
3238.00,51.29
3237.00,51.34
3236.00,51.39
3235.00,51.44
3234.00,51.50
3233.00,51.56
3232.00,51.63
3231.00,51.69
3230.00,51.76
3229.00,51.83
3228.00,51.90
3227.00,51.97
3226.00,52.04
3225.00,52.11
3224.00,52.19
3223.00,52.27
3222.00,52.35
3221.00,52.43
3220.00,52.52
3219.00,52.61
3218.00,52.70
3217.00,52.79
3216.00,52.87
3215.00,52.96
3214.00,53.05
3213.00,53.14
3212.00,53.24
3211.00,53.35
3210.00,53.45
3209.00,53.55
3208.00,53.65
3207.00,53.75
3206.00,53.85
3205.00,53.96
3204.00,54.07
3203.00,54.19
3202.00,54.30
3201.00,54.42
3200.00,54.54
3199.00,54.66
3198.00,54.77
3197.00,54.89
3196.00,55.02
3195.00,55.14
3194.00,55.27
3193.00,55.40
3192.00,55.52
3191.00,55.65
3190.00,55.78
3189.00,55.92
3188.00,56.05
3187.00,56.19
3186.00,56.33
3185.00,56.46
3184.00,56.60
3183.00,56.74
3182.00,56.88
3181.00,57.02
3180.00,57.17
3179.00,57.32
3178.00,57.47
3177.00,57.62
3176.00,57.77
3175.00,57.92
3174.00,58.07
3173.00,58.23
3172.00,58.39
3171.00,58.55
3170.00,58.71
3169.00,58.86
3168.00,59.02
3167.00,59.18
3166.00,59.35
3165.00,59.51
3164.00,59.68
3163.00,59.85
3162.00,60.01
3161.00,60.18
3160.00,60.35
3159.00,60.52
3158.00,60.69
3157.00,60.87
3156.00,61.04
3155.00,61.22
3154.00,61.39
3153.00,61.57
3152.00,61.75
3151.00,61.93
3150.00,62.11
3149.00,62.30
3148.00,62.48
3147.00,62.66
3146.00,62.83
3145.00,63.01
3144.00,63.19
3143.00,63.37
3142.00,63.55
3141.00,63.73
3140.00,63.92
3139.00,64.12
3138.00,64.31
3137.00,64.51
3136.00,64.70
3135.00,64.89
3134.00,65.08
3133.00,65.27
3132.00,65.45
3131.00,65.64
3130.00,65.82
3129.00,66.01
3128.00,66.20
3127.00,66.40
3126.00,66.59
3125.00,66.79
3124.00,66.98
3123.00,67.17
3122.00,67.36
3121.00,67.55
3120.00,67.74
3119.00,67.93
3118.00,68.13
3117.00,68.32
3116.00,68.51
3115.00,68.71
3114.00,68.91
3113.00,69.11
3112.00,69.30
3111.00,69.49
3110.00,69.68
3109.00,69.87
3108.00,70.07
3107.00,70.27
3106.00,70.46
3105.00,70.66
3104.00,70.85
3103.00,71.05
3102.00,71.24
3101.00,71.43
3100.00,71.62
3099.00,71.81
3098.00,72.00
3097.00,72.19
3096.00,72.38
3095.00,72.58
3094.00,72.77
3093.00,72.96
3092.00,73.15
3091.00,73.34
3090.00,73.53
3089.00,73.72
3088.00,73.91
3087.00,74.10
3086.00,74.28
3085.00,74.47
3084.00,74.65
3083.00,74.84
3082.00,75.03
3081.00,75.22
3080.00,75.40
3079.00,75.58
3078.00,75.77
3077.00,75.96
3076.00,76.14
3075.00,76.32
3074.00,76.50
3073.00,76.68
3072.00,76.86
3071.00,77.04
3070.00,77.22
3069.00,77.39
3068.00,77.56
3067.00,77.74
3066.00,77.91
3065.00,78.08
3064.00,78.26
3063.00,78.43
3062.00,78.61
3061.00,78.78
3060.00,78.95
3059.00,79.12
3058.00,79.29
3057.00,79.45
3056.00,79.62
3055.00,79.78
3054.00,79.95
3053.00,80.11
3052.00,80.28
3051.00,80.44
3050.00,80.60
3049.00,80.76
3048.00,80.92
3047.00,81.07
3046.00,81.23
3045.00,81.38
3044.00,81.54
3043.00,81.69
3042.00,81.85
3041.00,82.00
3040.00,82.14
3039.00,82.29
3038.00,82.43
3037.00,82.58
3036.00,82.72
3035.00,82.87
3034.00,83.01
3033.00,83.16
3032.00,83.29
3031.00,83.43
3030.00,83.56
3029.00,83.70
3028.00,83.84
3027.00,83.97
3026.00,84.09
3025.00,84.22
3024.00,84.34
3023.00,84.46
3022.00,84.58
3021.00,84.69
3020.00,84.81
3019.00,84.92
3018.00,85.03
3017.00,85.14
3016.00,85.25
3015.00,85.35
3014.00,85.44
3013.00,85.54
3012.00,85.63
3011.00,85.71
3010.00,85.80
3009.00,85.87
3008.00,85.95
3007.00,86.02
3006.00,86.09
3005.00,86.15
3004.00,86.21
3003.00,86.26
3002.00,86.30
3001.00,86.34
3000.00,86.37
2999.00,86.40
2998.00,86.42
2997.00,86.43
2996.00,86.44
2995.00,86.44
2994.00,86.43
2993.00,86.42
2992.00,86.41
2991.00,86.39
2990.00,86.36
2989.00,86.32
2988.00,86.28
2987.00,86.24
2986.00,86.19
2985.00,86.14
2984.00,86.08
2983.00,86.03
2982.00,85.97
2981.00,85.90
2980.00,85.84
2979.00,85.77
2978.00,85.70
2977.00,85.63
2976.00,85.56
2975.00,85.49
2974.00,85.42
2973.00,85.35
2972.00,85.27
2971.00,85.19
2970.00,85.10
2969.00,85.02
2968.00,84.93
2967.00,84.84
2966.00,84.74
2965.00,84.62
2964.00,84.49
2963.00,84.36
2962.00,84.22
2961.00,84.06
2960.00,83.90
2959.00,83.73
2958.00,83.55
2957.00,83.36
2956.00,83.17
2955.00,82.97
2954.00,82.78
2953.00,82.58
2952.00,82.38
2951.00,82.18
2950.00,81.98
2949.00,81.78
2948.00,81.59
2947.00,81.39
2946.00,81.21
2945.00,81.03
2944.00,80.86
2943.00,80.70
2942.00,80.56
2941.00,80.43
2940.00,80.31
2939.00,80.21
2938.00,80.12
2937.00,80.04
2936.00,79.98
2935.00,79.93
2934.00,79.90
2933.00,79.88
2932.00,79.89
2931.00,79.90
2930.00,79.93
2929.00,79.98
2928.00,80.03
2927.00,80.08
2926.00,80.15
2925.00,80.22
2924.00,80.30
2923.00,80.38
2922.00,80.47
2921.00,80.56
2920.00,80.65
2919.00,80.74
2918.00,80.84
2917.00,80.93
2916.00,81.02
2915.00,81.12
2914.00,81.21
2913.00,81.29
2912.00,81.38
2911.00,81.46
2910.00,81.54
2909.00,81.61
2908.00,81.67
2907.00,81.71
2906.00,81.75
2905.00,81.79
2904.00,81.82
2903.00,81.84
2902.00,81.86
2901.00,81.88
2900.00,81.89
2899.00,81.90
2898.00,81.90
2897.00,81.90
2896.00,81.91
2895.00,81.91
2894.00,81.91
2893.00,81.92
2892.00,81.92
2891.00,81.93
2890.00,81.94
2889.00,81.95
2888.00,81.98
2887.00,82.01
2886.00,82.06
2885.00,82.11
2884.00,82.17
2883.00,82.24
2882.00,82.33
2881.00,82.43
2880.00,82.53
2879.00,82.65
2878.00,82.77
2877.00,82.90
2876.00,83.04
2875.00,83.19
2874.00,83.34
2873.00,83.48
2872.00,83.63
2871.00,83.79
2870.00,83.94
2869.00,84.10
2868.00,84.26
2867.00,84.41
2866.00,84.57
2865.00,84.72
2864.00,84.86
2863.00,85.00
2862.00,85.14
2861.00,85.27
2860.00,85.39
2859.00,85.52
2858.00,85.64
2857.00,85.76
2856.00,85.87
2855.00,85.98
2854.00,86.09
2853.00,86.20
2852.00,86.31
2851.00,86.43
2850.00,86.54
2849.00,86.66
2848.00,86.78
2847.00,86.90
2846.00,87.03
2845.00,87.15
2844.00,87.27
2843.00,87.39
2842.00,87.50
2841.00,87.62
2840.00,87.73
2839.00,87.84
2838.00,87.95
2837.00,88.05
2836.00,88.16
2835.00,88.25
2834.00,88.35
2833.00,88.45
2832.00,88.54
2831.00,88.64
2830.00,88.73
2829.00,88.82
2828.00,88.91
2827.00,89.00
2826.00,89.08
2825.00,89.16
2824.00,89.24
2823.00,89.33
2822.00,89.41
2821.00,89.48
2820.00,89.56
2819.00,89.64
2818.00,89.71
2817.00,89.79
2816.00,89.86
2815.00,89.93
2814.00,90.01
2813.00,90.08
2812.00,90.15
2811.00,90.22
2810.00,90.29
2809.00,90.35
2808.00,90.41
2807.00,90.48
2806.00,90.54
2805.00,90.60
2804.00,90.66
2803.00,90.73
2802.00,90.79
2801.00,90.85
2800.00,90.91
2799.00,90.96
2798.00,91.02
2797.00,91.07
2796.00,91.13
2795.00,91.19
2794.00,91.24
2793.00,91.28
2792.00,91.33
2791.00,91.37
2790.00,91.42
2789.00,91.47
2788.00,91.52
2787.00,91.57
2786.00,91.61
2785.00,91.65
2784.00,91.70
2783.00,91.74
2782.00,91.79
2781.00,91.84
2780.00,91.88
2779.00,91.92
2778.00,91.96
2777.00,92.00
2776.00,92.04
2775.00,92.08
2774.00,92.11
2773.00,92.15
2772.00,92.19
2771.00,92.22
2770.00,92.26
2769.00,92.30
2768.00,92.34
2767.00,92.37
2766.00,92.40
2765.00,92.43
2764.00,92.45
2763.00,92.48
2762.00,92.50
2761.00,92.53
2760.00,92.56
2759.00,92.59
2758.00,92.62
2757.00,92.65
2756.00,92.67
2755.00,92.70
2754.00,92.73
2753.00,92.76
2752.00,92.78
2751.00,92.81
2750.00,92.83
2749.00,92.85
2748.00,92.88
2747.00,92.90
2746.00,92.92
2745.00,92.94
2744.00,92.96
2743.00,92.98
2742.00,93.00
2741.00,93.02
2740.00,93.04
2739.00,93.06
2738.00,93.08
2737.00,93.09
2736.00,93.11
2735.00,93.13
2734.00,93.15
2733.00,93.17
2732.00,93.19
2731.00,93.21
2730.00,93.22
2729.00,93.24
2728.00,93.26
2727.00,93.28
2726.00,93.30
2725.00,93.32
2724.00,93.34
2723.00,93.36
2722.00,93.38
2721.00,93.40
2720.00,93.43
2719.00,93.45
2718.00,93.48
2717.00,93.50
2716.00,93.52
2715.00,93.54
2714.00,93.55
2713.00,93.57
2712.00,93.60
2711.00,93.62
2710.00,93.65
2709.00,93.68
2708.00,93.70
2707.00,93.72
2706.00,93.75
2705.00,93.77
2704.00,93.79
2703.00,93.82
2702.00,93.84
2701.00,93.86
2700.00,93.88
2699.00,93.91
2698.00,93.93
2697.00,93.96
2696.00,93.99
2695.00,94.02
2694.00,94.04
2693.00,94.06
2692.00,94.09
2691.00,94.11
2690.00,94.14
2689.00,94.17
2688.00,94.19
2687.00,94.22
2686.00,94.25
2685.00,94.27
2684.00,94.30
2683.00,94.33
2682.00,94.36
2681.00,94.39
2680.00,94.42
2679.00,94.45
2678.00,94.48
2677.00,94.51
2676.00,94.54
2675.00,94.57
2674.00,94.59
2673.00,94.62
2672.00,94.65
2671.00,94.69
2670.00,94.72
2669.00,94.75
2668.00,94.78
2667.00,94.81
2666.00,94.85
2665.00,94.88
2664.00,94.91
2663.00,94.95
2662.00,94.98
2661.00,95.01
2660.00,95.04
2659.00,95.07
2658.00,95.10
2657.00,95.13
2656.00,95.17
2655.00,95.20
2654.00,95.23
2653.00,95.26
2652.00,95.29
2651.00,95.32
2650.00,95.35
2649.00,95.39
2648.00,95.43
2647.00,95.46
2646.00,95.49
2645.00,95.52
2644.00,95.54
2643.00,95.57
2642.00,95.60
2641.00,95.63
2640.00,95.66
2639.00,95.69
2638.00,95.72
2637.00,95.75
2636.00,95.78
2635.00,95.80
2634.00,95.83
2633.00,95.86
2632.00,95.89
2631.00,95.92
2630.00,95.95
2629.00,95.98
2628.00,96.00
2627.00,96.03
2626.00,96.05
2625.00,96.07
2624.00,96.09
2623.00,96.12
2622.00,96.15
2621.00,96.17
2620.00,96.19
2619.00,96.22
2618.00,96.24
2617.00,96.26
2616.00,96.29
2615.00,96.31
2614.00,96.33
2613.00,96.36
2612.00,96.38
2611.00,96.40
2610.00,96.42
2609.00,96.45
2608.00,96.47
2607.00,96.49
2606.00,96.50
2605.00,96.52
2604.00,96.53
2603.00,96.55
2602.00,96.57
2601.00,96.59
2600.00,96.61
2599.00,96.63
2598.00,96.65
2597.00,96.67
2596.00,96.68
2595.00,96.69
2594.00,96.71
2593.00,96.72
2592.00,96.74
2591.00,96.75
2590.00,96.77
2589.00,96.79
2588.00,96.81
2587.00,96.82
2586.00,96.83
2585.00,96.84
2584.00,96.85
2583.00,96.87
2582.00,96.88
2581.00,96.90
2580.00,96.91
2579.00,96.93
2578.00,96.94
2577.00,96.95
2576.00,96.97
2575.00,96.98
2574.00,97.00
2573.00,97.01
2572.00,97.02
2571.00,97.03
2570.00,97.04
2569.00,97.04
2568.00,97.05
2567.00,97.06
2566.00,97.07
2565.00,97.09
2564.00,97.10
2563.00,97.11
2562.00,97.12
2561.00,97.13
2560.00,97.14
2559.00,97.16
2558.00,97.17
2557.00,97.18
2556.00,97.19
2555.00,97.20
2554.00,97.22
2553.00,97.23
2552.00,97.24
2551.00,97.25
2550.00,97.25
2549.00,97.26
2548.00,97.27
2547.00,97.28
2546.00,97.30
2545.00,97.31
2544.00,97.32
2543.00,97.33
2542.00,97.34
2541.00,97.35
2540.00,97.36
2539.00,97.37
2538.00,97.37
2537.00,97.38
2536.00,97.39
2535.00,97.40
2534.00,97.41
2533.00,97.42
2532.00,97.43
2531.00,97.43
2530.00,97.43
2529.00,97.44
2528.00,97.46
2527.00,97.47
2526.00,97.49
2525.00,97.49
2524.00,97.50
2523.00,97.50
2522.00,97.51
2521.00,97.53
2520.00,97.54
2519.00,97.56
2518.00,97.57
2517.00,97.58
2516.00,97.58
2515.00,97.58
2514.00,97.59
2513.00,97.60
2512.00,97.61
2511.00,97.61
2510.00,97.62
2509.00,97.63
2508.00,97.64
2507.00,97.66
2506.00,97.68
2505.00,97.69
2504.00,97.71
2503.00,97.71
2502.00,97.72
2501.00,97.72
2500.00,97.73
2499.00,97.74
2498.00,97.76
2497.00,97.77
2496.00,97.77
2495.00,97.78
2494.00,97.79
2493.00,97.81
2492.00,97.83
2491.00,97.84
2490.00,97.85
2489.00,97.86
2488.00,97.87
2487.00,97.88
2486.00,97.90
2485.00,97.91
2484.00,97.93
2483.00,97.94
2482.00,97.95
2481.00,97.96
2480.00,97.97
2479.00,97.98
2478.00,98.00
2477.00,98.01
2476.00,98.02
2475.00,98.03
2474.00,98.04
2473.00,98.05
2472.00,98.07
2471.00,98.09
2470.00,98.11
2469.00,98.13
2468.00,98.14
2467.00,98.15
2466.00,98.16
2465.00,98.18
2464.00,98.20
2463.00,98.23
2462.00,98.25
2461.00,98.26
2460.00,98.27
2459.00,98.28
2458.00,98.30
2457.00,98.31
2456.00,98.33
2455.00,98.35
2454.00,98.36
2453.00,98.37
2452.00,98.38
2451.00,98.39
2450.00,98.40
2449.00,98.41
2448.00,98.43
2447.00,98.45
2446.00,98.47
2445.00,98.49
2444.00,98.51
2443.00,98.53
2442.00,98.54
2441.00,98.54
2440.00,98.54
2439.00,98.55
2438.00,98.57
2437.00,98.58
2436.00,98.59
2435.00,98.60
2434.00,98.61
2433.00,98.63
2432.00,98.65
2431.00,98.67
2430.00,98.69
2429.00,98.70
2428.00,98.71
2427.00,98.71
2426.00,98.72
2425.00,98.73
2424.00,98.74
2423.00,98.75
2422.00,98.77
2421.00,98.78
2420.00,98.79
2419.00,98.80
2418.00,98.82
2417.00,98.83
2416.00,98.84
2415.00,98.85
2414.00,98.85
2413.00,98.86
2412.00,98.87
2411.00,98.88
2410.00,98.88
2409.00,98.89
2408.00,98.89
2407.00,98.90
2406.00,98.91
2405.00,98.92
2404.00,98.93
2403.00,98.94
2402.00,98.95
2401.00,98.95
2400.00,98.96
2399.00,98.96
2398.00,98.97
2397.00,98.97
2396.00,98.98
2395.00,98.99
2394.00,99.00
2393.00,99.01
2392.00,99.02
2391.00,99.03
2390.00,99.03
2389.00,99.04
2388.00,99.04
2387.00,99.05
2386.00,99.06
2385.00,99.06
2384.00,99.07
2383.00,99.07
2382.00,99.08
2381.00,99.08
2380.00,99.08
2379.00,99.08
2378.00,99.09
2377.00,99.10
2376.00,99.10
2375.00,99.10
2374.00,99.10
2373.00,99.11
2372.00,99.11
2371.00,99.12
2370.00,99.13
2369.00,99.14
2368.00,99.14
2367.00,99.14
2366.00,99.14
2365.00,99.13
2364.00,99.14
2363.00,99.15
2362.00,99.16
2361.00,99.16
2360.00,99.16
2359.00,99.16
2358.00,99.16
2357.00,99.16
2356.00,99.16
2355.00,99.17
2354.00,99.18
2353.00,99.18
2352.00,99.18
2351.00,99.17
2350.00,99.18
2349.00,99.18
2348.00,99.18
2347.00,99.17
2346.00,99.17
2345.00,99.17
2344.00,99.17
2343.00,99.18
2342.00,99.19
2341.00,99.20
2340.00,99.19
2339.00,99.19
2338.00,99.20
2337.00,99.20
2336.00,99.20
2335.00,99.20
2334.00,99.20
2333.00,99.20
2332.00,99.19
2331.00,99.19
2330.00,99.19
2329.00,99.19
2328.00,99.19
2327.00,99.19
2326.00,99.20
2325.00,99.22
2324.00,99.22
2323.00,99.22
2322.00,99.22
2321.00,99.21
2320.00,99.20
2319.00,99.20
2318.00,99.21
2317.00,99.21
2316.00,99.21
2315.00,99.21
2314.00,99.20
2313.00,99.20
2312.00,99.19
2311.00,99.19
2310.00,99.19
2309.00,99.19
2308.00,99.20
2307.00,99.21
2306.00,99.21
2305.00,99.21
2304.00,99.20
2303.00,99.19
2302.00,99.19
2301.00,99.19
2300.00,99.19
2299.00,99.19
2298.00,99.19
2297.00,99.18
2296.00,99.17
2295.00,99.16
2294.00,99.16
2293.00,99.15
2292.00,99.15
2291.00,99.16
2290.00,99.17
2289.00,99.17
2288.00,99.16
2287.00,99.15
2286.00,99.14
2285.00,99.13
2284.00,99.13
2283.00,99.13
2282.00,99.12
2281.00,99.12
2280.00,99.12
2279.00,99.13
2278.00,99.14
2277.00,99.14
2276.00,99.13
2275.00,99.13
2274.00,99.12
2273.00,99.12
2272.00,99.12
2271.00,99.11
2270.00,99.11
2269.00,99.11
2268.00,99.10
2267.00,99.11
2266.00,99.11
2265.00,99.11
2264.00,99.10
2263.00,99.09
2262.00,99.09
2261.00,99.08
2260.00,99.09
2259.00,99.09
2258.00,99.09
2257.00,99.08
2256.00,99.06
2255.00,99.05
2254.00,99.05
2253.00,99.06
2252.00,99.06
2251.00,99.06
2250.00,99.05
2249.00,99.03
2248.00,99.01
2247.00,99.00
2246.00,98.99
2245.00,98.99
2244.00,98.99
2243.00,99.00
2242.00,99.01
2241.00,99.01
2240.00,99.01
2239.00,99.00
2238.00,99.00
2237.00,99.00
2236.00,99.00
2235.00,99.01
2234.00,99.01
2233.00,98.99
2232.00,98.96
2231.00,98.94
2230.00,98.94
2229.00,98.94
2228.00,98.94
2227.00,98.95
2226.00,98.95
2225.00,98.96
2224.00,98.96
2223.00,98.96
2222.00,98.96
2221.00,98.96
2220.00,98.95
2219.00,98.94
2218.00,98.93
2217.00,98.92
2216.00,98.90
2215.00,98.89
2214.00,98.88
2213.00,98.88
2212.00,98.88
2211.00,98.89
2210.00,98.90
2209.00,98.88
2208.00,98.85
2207.00,98.82
2206.00,98.81
2205.00,98.80
2204.00,98.80
2203.00,98.81
2202.00,98.83
2201.00,98.84
2200.00,98.84
2199.00,98.83
2198.00,98.81
2197.00,98.78
2196.00,98.75
2195.00,98.74
2194.00,98.75
2193.00,98.76
2192.00,98.76
2191.00,98.76
2190.00,98.77
2189.00,98.77
2188.00,98.77
2187.00,98.76
2186.00,98.75
2185.00,98.74
2184.00,98.73
2183.00,98.73
2182.00,98.74
2181.00,98.74
2180.00,98.73
2179.00,98.72
2178.00,98.71
2177.00,98.71
2176.00,98.69
2175.00,98.68
2174.00,98.67
2173.00,98.66
2172.00,98.66
2171.00,98.66
2170.00,98.68
2169.00,98.69
2168.00,98.69
2167.00,98.69
2166.00,98.69
2165.00,98.67
2164.00,98.66
2163.00,98.65
2162.00,98.64
2161.00,98.64
2160.00,98.62
2159.00,98.62
2158.00,98.62
2157.00,98.63
2156.00,98.62
2155.00,98.61
2154.00,98.59
2153.00,98.57
2152.00,98.55
2151.00,98.55
2150.00,98.55
2149.00,98.56
2148.00,98.56
2147.00,98.57
2146.00,98.57
2145.00,98.55
2144.00,98.53
2143.00,98.52
2142.00,98.53
2141.00,98.54
2140.00,98.54
2139.00,98.53
2138.00,98.52
2137.00,98.52
2136.00,98.52
2135.00,98.52
2134.00,98.53
2133.00,98.53
2132.00,98.53
2131.00,98.54
2130.00,98.55
2129.00,98.55
2128.00,98.53
2127.00,98.51
2126.00,98.51
2125.00,98.51
2124.00,98.51
2123.00,98.51
2122.00,98.51
2121.00,98.50
2120.00,98.49
2119.00,98.49
2118.00,98.50
2117.00,98.52
2116.00,98.52
2115.00,98.53
2114.00,98.54
2113.00,98.54
2112.00,98.54
2111.00,98.53
2110.00,98.53
2109.00,98.52
2108.00,98.51
2107.00,98.51
2106.00,98.52
2105.00,98.53
2104.00,98.53
2103.00,98.54
2102.00,98.55
2101.00,98.55
2100.00,98.55
2099.00,98.55
2098.00,98.56
2097.00,98.57
2096.00,98.59
2095.00,98.61
2094.00,98.61
2093.00,98.61
2092.00,98.61
2091.00,98.62
2090.00,98.64
2089.00,98.66
2088.00,98.67
2087.00,98.69
2086.00,98.69
2085.00,98.70
2084.00,98.70
2083.00,98.71
2082.00,98.72
2081.00,98.72
2080.00,98.71
2079.00,98.72
2078.00,98.72
2077.00,98.72
2076.00,98.72
2075.00,98.71
2074.00,98.71
2073.00,98.72
2072.00,98.73
2071.00,98.74
2070.00,98.75
2069.00,98.75
2068.00,98.75
2067.00,98.76
2066.00,98.78
2065.00,98.79
2064.00,98.80
2063.00,98.82
2062.00,98.84
2061.00,98.85
2060.00,98.85
2059.00,98.86
2058.00,98.87
2057.00,98.87
2056.00,98.86
2055.00,98.87
2054.00,98.87
2053.00,98.89
2052.00,98.90
2051.00,98.92
2050.00,98.95
2049.00,98.96
2048.00,98.96
2047.00,98.96
2046.00,98.97
2045.00,98.97
2044.00,98.98
2043.00,99.00
2042.00,99.03
2041.00,99.04
2040.00,99.04
2039.00,99.05
2038.00,99.07
2037.00,99.09
2036.00,99.09
2035.00,99.08
2034.00,99.08
2033.00,99.07
2032.00,99.07
2031.00,99.08
2030.00,99.09
2029.00,99.09
2028.00,99.09
2027.00,99.10
2026.00,99.13
2025.00,99.15
2024.00,99.16
2023.00,99.17
2022.00,99.19
2021.00,99.19
2020.00,99.20
2019.00,99.20
2018.00,99.22
2017.00,99.22
2016.00,99.23
2015.00,99.25
2014.00,99.28
2013.00,99.30
2012.00,99.31
2011.00,99.32
2010.00,99.34
2009.00,99.35
2008.00,99.35
2007.00,99.35
2006.00,99.35
2005.00,99.33
2004.00,99.31
2003.00,99.30
2002.00,99.31
2001.00,99.31
2000.00,99.31
1999.00,99.32
1998.00,99.34
1997.00,99.35
1996.00,99.35
1995.00,99.35
1994.00,99.38
1993.00,99.40
1992.00,99.42
1991.00,99.41
1990.00,99.40
1989.00,99.39
1988.00,99.38
1987.00,99.40
1986.00,99.43
1985.00,99.44
1984.00,99.44
1983.00,99.43
1982.00,99.43
1981.00,99.44
1980.00,99.46
1979.00,99.50
1978.00,99.52
1977.00,99.50
1976.00,99.45
1975.00,99.42
1974.00,99.43
1973.00,99.43
1972.00,99.42
1971.00,99.43
1970.00,99.45
1969.00,99.48
1968.00,99.50
1967.00,99.51
1966.00,99.53
1965.00,99.53
1964.00,99.52
1963.00,99.52
1962.00,99.52
1961.00,99.51
1960.00,99.49
1959.00,99.49
1958.00,99.50
1957.00,99.50
1956.00,99.48
1955.00,99.47
1954.00,99.46
1953.00,99.45
1952.00,99.44
1951.00,99.44
1950.00,99.45
1949.00,99.46
1948.00,99.46
1947.00,99.47
1946.00,99.47
1945.00,99.46
1944.00,99.45
1943.00,99.45
1942.00,99.46
1941.00,99.47
1940.00,99.48
1939.00,99.50
1938.00,99.51
1937.00,99.52
1936.00,99.52
1935.00,99.52
1934.00,99.52
1933.00,99.51
1932.00,99.50
1931.00,99.50
1930.00,99.51
1929.00,99.50
1928.00,99.49
1927.00,99.49
1926.00,99.51
1925.00,99.52
1924.00,99.52
1923.00,99.52
1922.00,99.51
1921.00,99.50
1920.00,99.50
1919.00,99.51
1918.00,99.53
1917.00,99.54
1916.00,99.53
1915.00,99.53
1914.00,99.53
1913.00,99.52
1912.00,99.51
1911.00,99.51
1910.00,99.51
1909.00,99.51
1908.00,99.51
1907.00,99.51
1906.00,99.52
1905.00,99.53
1904.00,99.53
1903.00,99.53
1902.00,99.53
1901.00,99.53
1900.00,99.52
1899.00,99.52
1898.00,99.52
1897.00,99.52
1896.00,99.51
1895.00,99.51
1894.00,99.51
1893.00,99.51
1892.00,99.50
1891.00,99.51
1890.00,99.52
1889.00,99.51
1888.00,99.50
1887.00,99.50
1886.00,99.50
1885.00,99.50
1884.00,99.50
1883.00,99.51
1882.00,99.52
1881.00,99.52
1880.00,99.51
1879.00,99.50
1878.00,99.50
1877.00,99.50
1876.00,99.50
1875.00,99.50
1874.00,99.49
1873.00,99.48
1872.00,99.47
1871.00,99.46
1870.00,99.47
1869.00,99.48
1868.00,99.49
1867.00,99.50
1866.00,99.51
1865.00,99.51
1864.00,99.51
1863.00,99.51
1862.00,99.52
1861.00,99.53
1860.00,99.53
1859.00,99.53
1858.00,99.53
1857.00,99.53
1856.00,99.53
1855.00,99.53
1854.00,99.53
1853.00,99.52
1852.00,99.51
1851.00,99.50
1850.00,99.51
1849.00,99.51
1848.00,99.50
1847.00,99.49
1846.00,99.50
1845.00,99.50
1844.00,99.50
1843.00,99.51
1842.00,99.52
1841.00,99.53
1840.00,99.52
1839.00,99.52
1838.00,99.53
1837.00,99.53
1836.00,99.53
1835.00,99.52
1834.00,99.52
1833.00,99.50
1832.00,99.50
1831.00,99.50
1830.00,99.52
1829.00,99.53
1828.00,99.53
1827.00,99.52
1826.00,99.52
1825.00,99.52
1824.00,99.52
1823.00,99.52
1822.00,99.53
1821.00,99.54
1820.00,99.53
1819.00,99.54
1818.00,99.54
1817.00,99.54
1816.00,99.53
1815.00,99.52
1814.00,99.52
1813.00,99.52
1812.00,99.52
1811.00,99.53
1810.00,99.54
1809.00,99.54
1808.00,99.54
1807.00,99.54
1806.00,99.53
1805.00,99.52
1804.00,99.50
1803.00,99.49
1802.00,99.50
1801.00,99.51
1800.00,99.52
1799.00,99.53
1798.00,99.54
1797.00,99.53
1796.00,99.52
1795.00,99.51
1794.00,99.51
1793.00,99.51
1792.00,99.51
1791.00,99.52
1790.00,99.53
1789.00,99.53
1788.00,99.52
1787.00,99.52
1786.00,99.52
1785.00,99.52
1784.00,99.52
1783.00,99.52
1782.00,99.53
1781.00,99.54
1780.00,99.53
1779.00,99.53
1778.00,99.53
1777.00,99.52
1776.00,99.51
1775.00,99.51
1774.00,99.52
1773.00,99.52
1772.00,99.51
1771.00,99.51
1770.00,99.52
1769.00,99.54
1768.00,99.54
1767.00,99.53
1766.00,99.53
1765.00,99.52
1764.00,99.51
1763.00,99.51
1762.00,99.52
1761.00,99.51
1760.00,99.50
1759.00,99.49
1758.00,99.49
1757.00,99.48
1756.00,99.45
1755.00,99.43
1754.00,99.41
1753.00,99.39
1752.00,99.37
1751.00,99.35
1750.00,99.34
1749.00,99.33
1748.00,99.31
1747.00,99.29
1746.00,99.27
1745.00,99.25
1744.00,99.21
1743.00,99.18
1742.00,99.16
1741.00,99.13
1740.00,99.09
1739.00,99.04
1738.00,98.99
1737.00,98.97
1736.00,98.94
1735.00,98.91
1734.00,98.87
1733.00,98.81
1732.00,98.78
1731.00,98.76
1730.00,98.75
1729.00,98.73
1728.00,98.70
1727.00,98.66
1726.00,98.63
1725.00,98.60
1724.00,98.56
1723.00,98.51
1722.00,98.46
1721.00,98.42
1720.00,98.38
1719.00,98.34
1718.00,98.31
1717.00,98.25
1716.00,98.20
1715.00,98.17
1714.00,98.14
1713.00,98.11
1712.00,98.05
1711.00,97.99
1710.00,97.92
1709.00,97.85
1708.00,97.77
1707.00,97.69
1706.00,97.60
1705.00,97.49
1704.00,97.38
1703.00,97.29
1702.00,97.21
1701.00,97.10
1700.00,96.95
1699.00,96.85
1698.00,96.79
1697.00,96.70
1696.00,96.54
1695.00,96.36
1694.00,96.22
1693.00,96.11
1692.00,95.98
1691.00,95.82
1690.00,95.65
1689.00,95.47
1688.00,95.30
1687.00,95.15
1686.00,94.99
1685.00,94.76
1684.00,94.45
1683.00,94.21
1682.00,94.05
1681.00,93.89
1680.00,93.70
1679.00,93.51
1678.00,93.33
1677.00,93.14
1676.00,92.90
1675.00,92.62
1674.00,92.38
1673.00,92.18
1672.00,91.99
1671.00,91.79
1670.00,91.56
1669.00,91.32
1668.00,91.10
1667.00,90.92
1666.00,90.77
1665.00,90.60
1664.00,90.40
1663.00,90.18
1662.00,89.98
1661.00,89.81
1660.00,89.65
1659.00,89.49
1658.00,89.34
1657.00,89.20
1656.00,89.07
1655.00,88.98
1654.00,88.85
1653.00,88.65
1652.00,88.47
1651.00,88.38
1650.00,88.36
1649.00,88.35
1648.00,88.31
1647.00,88.25
1646.00,88.21
1645.00,88.19
1644.00,88.19
1643.00,88.21
1642.00,88.24
1641.00,88.27
1640.00,88.30
1639.00,88.35
1638.00,88.42
1637.00,88.53
1636.00,88.66
1635.00,88.80
1634.00,88.95
1633.00,89.09
1632.00,89.23
1631.00,89.37
1630.00,89.54
1629.00,89.73
1628.00,89.93
1627.00,90.13
1626.00,90.33
1625.00,90.55
1624.00,90.79
1623.00,91.05
1622.00,91.30
1621.00,91.52
1620.00,91.72
1619.00,91.93
1618.00,92.18
1617.00,92.46
1616.00,92.73
1615.00,92.97
1614.00,93.18
1613.00,93.39
1612.00,93.60
1611.00,93.82
1610.00,94.04
1609.00,94.25
1608.00,94.44
1607.00,94.63
1606.00,94.81
1605.00,94.99
1604.00,95.17
1603.00,95.34
1602.00,95.51
1601.00,95.68
1600.00,95.83
1599.00,95.98
1598.00,96.12
1597.00,96.27
1596.00,96.40
1595.00,96.53
1594.00,96.66
1593.00,96.78
1592.00,96.90
1591.00,97.02
1590.00,97.15
1589.00,97.26
1588.00,97.37
1587.00,97.47
1586.00,97.56
1585.00,97.66
1584.00,97.75
1583.00,97.84
1582.00,97.92
1581.00,97.99
1580.00,98.06
1579.00,98.13
1578.00,98.22
1577.00,98.31
1576.00,98.39
1575.00,98.45
1574.00,98.50
1573.00,98.56
1572.00,98.61
1571.00,98.66
1570.00,98.73
1569.00,98.78
1568.00,98.83
1567.00,98.88
1566.00,98.93
1565.00,98.97
1564.00,98.99
1563.00,98.99
1562.00,98.98
1561.00,98.99
1560.00,99.05
1559.00,99.12
1558.00,99.17
1557.00,99.21
1556.00,99.26
1555.00,99.30
1554.00,99.32
1553.00,99.34
1552.00,99.36
1551.00,99.40
1550.00,99.43
1549.00,99.44
1548.00,99.44
1547.00,99.44
1546.00,99.43
1545.00,99.41
1544.00,99.40
1543.00,99.41
1542.00,99.46
1541.00,99.52
1540.00,99.55
1539.00,99.55
1538.00,99.54
1537.00,99.52
1536.00,99.51
1535.00,99.52
1534.00,99.53
1533.00,99.53
1532.00,99.54
1531.00,99.55
1530.00,99.56
1529.00,99.55
1528.00,99.54
1527.00,99.54
1526.00,99.54
1525.00,99.54
1524.00,99.54
1523.00,99.55
1522.00,99.55
1521.00,99.53
1520.00,99.51
1519.00,99.52
1518.00,99.54
1517.00,99.54
1516.00,99.53
1515.00,99.53
1514.00,99.52
1513.00,99.49
1512.00,99.44
1511.00,99.40
1510.00,99.37
1509.00,99.36
1508.00,99.35
1507.00,99.32
1506.00,99.26
1505.00,99.21
1504.00,99.16
1503.00,99.13
1502.00,99.09
1501.00,99.02
1500.00,98.94
1499.00,98.87
1498.00,98.80
1497.00,98.69
1496.00,98.54
1495.00,98.40
1494.00,98.27
1493.00,98.12
1492.00,97.96
1491.00,97.80
1490.00,97.62
1489.00,97.42
1488.00,97.22
1487.00,97.04
1486.00,96.85
1485.00,96.64
1484.00,96.42
1483.00,96.18
1482.00,95.91
1481.00,95.61
1480.00,95.31
1479.00,95.01
1478.00,94.70
1477.00,94.34
1476.00,93.96
1475.00,93.60
1474.00,93.22
1473.00,92.74
1472.00,92.23
1471.00,91.78
1470.00,91.41
1469.00,91.04
1468.00,90.66
1467.00,90.27
1466.00,89.83
1465.00,89.33
1464.00,88.85
1463.00,88.44
1462.00,88.10
1461.00,87.78
1460.00,87.47
1459.00,87.17
1458.00,86.85
1457.00,86.47
1456.00,86.16
1455.00,85.99
1454.00,85.90
1453.00,85.81
1452.00,85.73
1451.00,85.67
1450.00,85.62
1449.00,85.56
1448.00,85.51
1447.00,85.47
1446.00,85.44
1445.00,85.38
1444.00,85.32
1443.00,85.24
1442.00,85.14
1441.00,85.02
1440.00,84.91
1439.00,84.79
1438.00,84.66
1437.00,84.49
1436.00,84.31
1435.00,84.19
1434.00,84.09
1433.00,83.99
1432.00,83.88
1431.00,83.77
1430.00,83.65
1429.00,83.53
1428.00,83.42
1427.00,83.34
1426.00,83.26
1425.00,83.16
1424.00,83.06
1423.00,82.98
1422.00,82.92
1421.00,82.87
1420.00,82.81
1419.00,82.76
1418.00,82.73
1417.00,82.72
1416.00,82.74
1415.00,82.78
1414.00,82.81
1413.00,82.84
1412.00,82.89
1411.00,82.96
1410.00,83.05
1409.00,83.13
1408.00,83.23
1407.00,83.35
1406.00,83.50
1405.00,83.65
1404.00,83.83
1403.00,84.03
1402.00,84.22
1401.00,84.41
1400.00,84.63
1399.00,84.86
1398.00,85.09
1397.00,85.30
1396.00,85.52
1395.00,85.76
1394.00,85.99
1393.00,86.18
1392.00,86.35
1391.00,86.50
1390.00,86.64
1389.00,86.75
1388.00,86.85
1387.00,86.93
1386.00,86.99
1385.00,87.02
1384.00,87.04
1383.00,87.03
1382.00,87.00
1381.00,86.94
1380.00,86.87
1379.00,86.79
1378.00,86.70
1377.00,86.60
1376.00,86.49
1375.00,86.39
1374.00,86.29
1373.00,86.20
1372.00,86.12
1371.00,86.06
1370.00,86.00
1369.00,85.92
1368.00,85.84
1367.00,85.77
1366.00,85.71
1365.00,85.65
1364.00,85.60
1363.00,85.55
1362.00,85.51
1361.00,85.47
1360.00,85.44
1359.00,85.41
1358.00,85.39
1357.00,85.34
1356.00,85.29
1355.00,85.24
1354.00,85.18
1353.00,85.12
1352.00,85.05
1351.00,84.97
1350.00,84.90
1349.00,84.81
1348.00,84.73
1347.00,84.67
1346.00,84.62
1345.00,84.58
1344.00,84.57
1343.00,84.59
1342.00,84.64
1341.00,84.71
1340.00,84.83
1339.00,84.98
1338.00,85.16
1337.00,85.37
1336.00,85.59
1335.00,85.84
1334.00,86.10
1333.00,86.35
1332.00,86.61
1331.00,86.87
1330.00,87.13
1329.00,87.38
1328.00,87.63
1327.00,87.87
1326.00,88.11
1325.00,88.33
1324.00,88.55
1323.00,88.76
1322.00,88.97
1321.00,89.16
1320.00,89.35
1319.00,89.54
1318.00,89.72
1317.00,89.91
1316.00,90.09
1315.00,90.27
1314.00,90.46
1313.00,90.64
1312.00,90.84
1311.00,91.04
1310.00,91.24
1309.00,91.44
1308.00,91.64
1307.00,91.84
1306.00,92.04
1305.00,92.23
1304.00,92.41
1303.00,92.59
1302.00,92.76
1301.00,92.91
1300.00,93.06
1299.00,93.20
1298.00,93.33
1297.00,93.44
1296.00,93.54
1295.00,93.64
1294.00,93.72
1293.00,93.78
1292.00,93.83
1291.00,93.88
1290.00,93.91
1289.00,93.93
1288.00,93.94
1287.00,93.94
1286.00,93.93
1285.00,93.92
1284.00,93.90
1283.00,93.89
1282.00,93.86
1281.00,93.82
1280.00,93.77
1279.00,93.72
1278.00,93.65
1277.00,93.57
1276.00,93.48
1275.00,93.38
1274.00,93.26
1273.00,93.12
1272.00,92.96
1271.00,92.79
1270.00,92.60
1269.00,92.40
1268.00,92.20
1267.00,92.00
1266.00,91.81
1265.00,91.63
1264.00,91.47
1263.00,91.34
1262.00,91.22
1261.00,91.14
1260.00,91.07
1259.00,91.03
1258.00,91.01
1257.00,91.00
1256.00,91.01
1255.00,91.04
1254.00,91.08
1253.00,91.12
1252.00,91.15
1251.00,91.20
1250.00,91.25
1249.00,91.31
1248.00,91.37
1247.00,91.44
1246.00,91.52
1245.00,91.60
1244.00,91.68
1243.00,91.77
1242.00,91.87
1241.00,91.96
1240.00,92.06
1239.00,92.18
1238.00,92.30
1237.00,92.42
1236.00,92.55
1235.00,92.69
1234.00,92.84
1233.00,93.00
1232.00,93.17
1231.00,93.37
1230.00,93.58
1229.00,93.80
1228.00,94.05
1227.00,94.31
1226.00,94.60
1225.00,94.89
1224.00,95.20
1223.00,95.52
1222.00,95.86
1221.00,96.19
1220.00,96.52
1219.00,96.85
1218.00,97.18
1217.00,97.49
1216.00,97.78
1215.00,98.05
1214.00,98.30
1213.00,98.51
1212.00,98.70
1211.00,98.86
1210.00,98.99
1209.00,99.09
1208.00,99.17
1207.00,99.22
1206.00,99.25
1205.00,99.24
1204.00,99.21
1203.00,99.17
1202.00,99.11
1201.00,99.05
1200.00,98.97
1199.00,98.90
1198.00,98.84
1197.00,98.77
1196.00,98.70
1195.00,98.64
1194.00,98.59
1193.00,98.54
1192.00,98.49
1191.00,98.46
1190.00,98.44
1189.00,98.42
1188.00,98.41
1187.00,98.42
1186.00,98.45
1185.00,98.49
1184.00,98.55
1183.00,98.63
1182.00,98.72
1181.00,98.83
1180.00,98.94
1179.00,99.04
1178.00,99.14
1177.00,99.21
1176.00,99.24
1175.00,99.22
1174.00,99.15
1173.00,99.01
1172.00,98.80
1171.00,98.51
1170.00,98.13
1169.00,97.65
1168.00,97.07
1167.00,96.41
1166.00,95.67
1165.00,94.83
1164.00,93.92
1163.00,92.96
1162.00,91.96
1161.00,90.93
1160.00,89.90
1159.00,88.88
1158.00,87.89
1157.00,86.94
1156.00,86.04
1155.00,85.22
1154.00,84.47
1153.00,83.79
1152.00,83.20
1151.00,82.72
1150.00,82.35
1149.00,82.08
1148.00,81.91
1147.00,81.85
1146.00,81.88
1145.00,82.00
1144.00,82.18
1143.00,82.44
1142.00,82.73
1141.00,83.01
1140.00,83.29
1139.00,83.56
1138.00,83.81
1137.00,84.04
1136.00,84.22
1135.00,84.37
1134.00,84.49
1133.00,84.56
1132.00,84.60
1131.00,84.61
1130.00,84.61
1129.00,84.57
1128.00,84.50
1127.00,84.42
1126.00,84.31
1125.00,84.17
1124.00,83.97
1123.00,83.72
1122.00,83.43
1121.00,83.07
1120.00,82.65
1119.00,82.17
1118.00,81.62
1117.00,80.96
1116.00,80.22
1115.00,79.41
1114.00,78.53
1113.00,77.59
1112.00,76.58
1111.00,75.57
1110.00,74.56
1109.00,73.55
1108.00,72.58
1107.00,71.68
1106.00,70.89
1105.00,70.22
1104.00,69.66
1103.00,69.26
1102.00,69.01
1101.00,68.89
1100.00,68.88
1099.00,68.96
1098.00,69.11
1097.00,69.26
1096.00,69.36
1095.00,69.38
1094.00,69.26
1093.00,68.95
1092.00,68.44
1091.00,67.76
1090.00,66.92
1089.00,65.93
1088.00,64.81
1087.00,63.63
1086.00,62.41
1085.00,61.16
1084.00,59.90
1083.00,58.71
1082.00,57.61
1081.00,56.59
1080.00,55.66
1079.00,54.85
1078.00,54.18
1077.00,53.60
1076.00,53.10
1075.00,52.70
1074.00,52.36
1073.00,52.02
1072.00,51.63
1071.00,51.22
1070.00,50.77
1069.00,50.24
1068.00,49.63
1067.00,48.98
1066.00,48.30
1065.00,47.55
1064.00,46.76
1063.00,45.95
1062.00,45.15
1061.00,44.34
1060.00,43.52
1059.00,42.75
1058.00,42.04
1057.00,41.36
1056.00,40.70
1055.00,40.10
1054.00,39.58
1053.00,39.11
1052.00,38.73
1051.00,38.49
1050.00,38.39
1049.00,38.35
1048.00,38.36
1047.00,38.43
1046.00,38.53
1045.00,38.60
1044.00,38.61
1043.00,38.59
1042.00,38.53
1041.00,38.37
1040.00,38.11
1039.00,37.81
1038.00,37.47
1037.00,37.05
1036.00,36.57
1035.00,36.07
1034.00,35.57
1033.00,35.05
1032.00,34.53
1031.00,34.07
1030.00,33.67
1029.00,33.32
1028.00,33.01
1027.00,32.80
1026.00,32.70
1025.00,32.67
1024.00,32.71
1023.00,32.85
1022.00,33.07
1021.00,33.33
1020.00,33.61
1019.00,33.91
1018.00,34.23
1017.00,34.52
1016.00,34.80
1015.00,35.10
1014.00,35.44
1013.00,35.80
1012.00,36.20
1011.00,36.71
1010.00,37.34
1009.00,38.10
1008.00,38.99
1007.00,40.04
1006.00,41.25
1005.00,42.57
1004.00,43.98
1003.00,45.46
1002.00,46.95
1001.00,48.38
1000.00,49.70
999.00,50.90
998.00,51.97
997.00,52.85
996.00,53.57
995.00,54.16
994.00,54.65
993.00,55.07
992.00,55.44
991.00,55.83
990.00,56.26
989.00,56.73
988.00,57.22
987.00,57.76
986.00,58.32
985.00,58.84
984.00,59.32
983.00,59.76
982.00,60.20
981.00,60.65
980.00,61.16
979.00,61.82
978.00,62.68
977.00,63.75
976.00,65.03
975.00,66.50
974.00,68.06
973.00,69.61
972.00,71.01
971.00,72.21
970.00,73.16
969.00,73.84
968.00,74.32
967.00,74.72
966.00,75.17
965.00,75.77
964.00,76.62
963.00,77.80
962.00,79.33
961.00,81.16
960.00,83.22
959.00,85.39
958.00,87.56
957.00,89.61
956.00,91.48
955.00,93.12
954.00,94.53
953.00,95.69
952.00,96.63
951.00,97.38
950.00,97.98
949.00,98.44
948.00,98.77
947.00,99.01
946.00,99.16
945.00,99.23
944.00,99.23
943.00,99.19
942.00,99.12
941.00,99.01
940.00,98.85
939.00,98.67
938.00,98.48
937.00,98.28
936.00,98.06
935.00,97.83
934.00,97.58
933.00,97.29
932.00,96.98
931.00,96.64
930.00,96.27
929.00,95.84
928.00,95.37
927.00,94.87
926.00,94.36
925.00,93.85
924.00,93.35
923.00,92.90
922.00,92.52
921.00,92.21
920.00,92.01
919.00,91.95
918.00,92.03
917.00,92.24
916.00,92.57
915.00,93.02
914.00,93.55
913.00,94.13
912.00,94.72
911.00,95.28
910.00,95.80
909.00,96.24
908.00,96.58
907.00,96.85
906.00,97.02
905.00,97.10
904.00,97.11
903.00,97.08
902.00,97.03
901.00,96.97
900.00,96.92
899.00,96.89
898.00,96.89
897.00,96.94
896.00,97.03
895.00,97.17
894.00,97.37
893.00,97.61
892.00,97.89
891.00,98.20
890.00,98.55
889.00,98.89
888.00,99.20
887.00,99.49
886.00,99.74
885.00,99.91
884.00,100.00
883.00,100.01
882.00,99.91
881.00,99.67
880.00,99.30
879.00,98.81
878.00,98.23
877.00,97.57
876.00,96.84
875.00,96.07
874.00,95.27
873.00,94.45
872.00,93.64
871.00,92.90
870.00,92.28
869.00,91.79
868.00,91.42
867.00,91.19
866.00,91.08
865.00,91.11
864.00,91.27
863.00,91.58
862.00,92.05
861.00,92.62
860.00,93.26
859.00,93.97
858.00,94.72
857.00,95.48
856.00,96.22
855.00,96.91
854.00,97.53
853.00,98.06
852.00,98.51
851.00,98.88
850.00,99.19
849.00,99.41
848.00,99.54
847.00,99.62
846.00,99.68
845.00,99.71
844.00,99.71
843.00,99.69
842.00,99.67
841.00,99.62
840.00,99.56
839.00,99.48
838.00,99.40
837.00,99.27
836.00,99.10
835.00,98.89
834.00,98.63
833.00,98.28
832.00,97.81
831.00,97.25
830.00,96.60
829.00,95.84
828.00,94.96
827.00,93.97
826.00,92.90
825.00,91.74
824.00,90.55
823.00,89.39
822.00,88.34
821.00,87.40
820.00,86.65
819.00,86.16
818.00,85.95
817.00,86.00
816.00,86.32
815.00,86.92
814.00,87.77
813.00,88.82
812.00,89.98
811.00,91.22
810.00,92.48
809.00,93.69
808.00,94.81
807.00,95.84
806.00,96.77
805.00,97.55
804.00,98.19
803.00,98.73
802.00,99.17
801.00,99.51
800.00,99.74
799.00,99.90
798.00,100.00
797.00,100.00
796.00,99.89
795.00,99.69
794.00,99.40
793.00,98.95
792.00,98.33
791.00,97.53
790.00,96.58
789.00,95.47
788.00,94.22
787.00,92.90
786.00,91.53
785.00,90.14
784.00,88.75
783.00,87.47
782.00,86.38
781.00,85.48
780.00,84.79
779.00,84.34
778.00,84.14
777.00,84.14
776.00,84.32
775.00,84.71
774.00,85.29
773.00,85.99
772.00,86.75
771.00,87.60
770.00,88.50
769.00,89.42
768.00,90.30
767.00,91.15
766.00,91.96
765.00,92.73
764.00,93.45
763.00,94.15
762.00,94.80
761.00,95.36
760.00,95.82
759.00,96.24
758.00,96.65
757.00,97.01
756.00,97.31
755.00,97.57
754.00,97.81
753.00,98.00
752.00,98.15
751.00,98.31
750.00,98.48
749.00,98.63
748.00,98.74
747.00,98.86
746.00,99.00
745.00,99.10
744.00,99.16
743.00,99.21
742.00,99.28
741.00,99.33
740.00,99.36
739.00,99.42
738.00,99.50
737.00,99.56
736.00,99.59
735.00,99.60
734.00,99.61
733.00,99.59
732.00,99.54
731.00,99.53
730.00,99.55
729.00,99.58
728.00,99.58
727.00,99.59
726.00,99.59
725.00,99.54
724.00,99.43
723.00,99.32
722.00,99.22
721.00,99.09
720.00,98.89
719.00,98.69
718.00,98.50
717.00,98.27
716.00,97.99
715.00,97.71
714.00,97.46
713.00,97.18
712.00,96.84
711.00,96.49
710.00,96.18
709.00,95.88
708.00,95.60
707.00,95.38
706.00,95.23
705.00,95.09
704.00,94.95
703.00,94.91
702.00,94.98
701.00,95.08
700.00,95.17
699.00,95.28
698.00,95.43
697.00,95.58
696.00,95.71
695.00,95.89
694.00,96.11
693.00,96.32
692.00,96.49
691.00,96.69
690.00,96.94
689.00,97.16
688.00,97.28
687.00,97.37
686.00,97.49
685.00,97.59
684.00,97.70
683.00,97.87
682.00,98.08
681.00,98.21
680.00,98.25
679.00,98.31
678.00,98.46
677.00,98.61
676.00,98.68
675.00,98.73
674.00,98.82
673.00,98.88
672.00,98.92
671.00,99.00
670.00,99.11
669.00,99.10
668.00,98.92
667.00,98.88
666.00,99.05
665.00,99.20
664.00,99.23
663.00,99.27
662.00,99.40
661.00,99.51
660.00,99.52
659.00,99.50
658.00,99.54
657.00,99.58
656.00,99.57
655.00,99.59
654.00,99.66
653.00,99.62
652.00,99.42
651.00,99.19
650.00,98.99
