Created as New Dataset,Sample 007 By iruser Date Tuesday, March 24 2026
cm-1,%T
4200.00,99.09
4199.00,99.09
4198.00,99.09
4197.00,99.09
4196.00,99.09
4195.00,99.09
4194.00,99.09
4193.00,99.09
4192.00,99.09
4191.00,99.10
4190.00,99.10
4189.00,99.10
4188.00,99.10
4187.00,99.09
4186.00,99.08
4185.00,99.07
4184.00,99.06
4183.00,99.06
4182.00,99.06
4181.00,99.06
4180.00,99.06
4179.00,99.07
4178.00,99.07
4177.00,99.08
4176.00,99.08
4175.00,99.09
4174.00,99.08
4173.00,99.08
4172.00,99.08
4171.00,99.08
4170.00,99.08
4169.00,99.08
4168.00,99.08
4167.00,99.08
4166.00,99.07
4165.00,99.07
4164.00,99.06
4163.00,99.05
4162.00,99.05
4161.00,99.05
4160.00,99.05
4159.00,99.05
4158.00,99.06
4157.00,99.06
4156.00,99.07
4155.00,99.07
4154.00,99.07
4153.00,99.06
4152.00,99.06
4151.00,99.06
4150.00,99.06
4149.00,99.06
4148.00,99.06
4147.00,99.06
4146.00,99.06
4145.00,99.06
4144.00,99.06
4143.00,99.06
4142.00,99.06
4141.00,99.06
4140.00,99.06
4139.00,99.05
4138.00,99.04
4137.00,99.04
4136.00,99.03
4135.00,99.03
4134.00,99.04
4133.00,99.04
4132.00,99.04
4131.00,99.05
4130.00,99.05
4129.00,99.05
4128.00,99.05
4127.00,99.05
4126.00,99.04
4125.00,99.04
4124.00,99.04
4123.00,99.03
4122.00,99.03
4121.00,99.02
4120.00,99.02
4119.00,99.02
4118.00,99.03
4117.00,99.03
4116.00,99.02
4115.00,99.02
4114.00,99.02
4113.00,99.02
4112.00,99.03
4111.00,99.03
4110.00,99.02
4109.00,99.02
4108.00,99.01
4107.00,99.00
4106.00,99.00
4105.00,98.99
4104.00,98.99
4103.00,98.99
4102.00,98.99
4101.00,99.00
4100.00,99.00
4099.00,99.00
4098.00,98.99
4097.00,98.98
4096.00,98.97
4095.00,98.97
4094.00,98.97
4093.00,98.97
4092.00,98.97
4091.00,98.97
4090.00,98.97
4089.00,98.97
4088.00,98.97
4087.00,98.98
4086.00,98.98
4085.00,98.98
4084.00,98.98
4083.00,98.98
4082.00,98.97
4081.00,98.97
4080.00,98.97
4079.00,98.98
4078.00,98.98
4077.00,98.97
4076.00,98.97
4075.00,98.96
4074.00,98.96
4073.00,98.95
4072.00,98.95
4071.00,98.95
4070.00,98.94
4069.00,98.94
4068.00,98.94
4067.00,98.94
4066.00,98.94
4065.00,98.94
4064.00,98.94
4063.00,98.93
4062.00,98.92
4061.00,98.92
4060.00,98.91
4059.00,98.91
4058.00,98.91
4057.00,98.90
4056.00,98.90
4055.00,98.90
4054.00,98.90
4053.00,98.90
4052.00,98.90
4051.00,98.90
4050.00,98.90
4049.00,98.89
4048.00,98.89
4047.00,98.89
4046.00,98.89
4045.00,98.89
4044.00,98.89
4043.00,98.89
4042.00,98.88
4041.00,98.88
4040.00,98.87
4039.00,98.87
4038.00,98.88
4037.00,98.88
4036.00,98.88
4035.00,98.87
4034.00,98.87
4033.00,98.86
4032.00,98.86
4031.00,98.86
4030.00,98.86
4029.00,98.86
4028.00,98.85
4027.00,98.85
4026.00,98.85
4025.00,98.85
4024.00,98.85
4023.00,98.85
4022.00,98.84
4021.00,98.84
4020.00,98.84
4019.00,98.84
4018.00,98.85
4017.00,98.85
4016.00,98.85
4015.00,98.85
4014.00,98.85
4013.00,98.85
4012.00,98.85
4011.00,98.86
4010.00,98.86
4009.00,98.86
4008.00,98.86
4007.00,98.85
4006.00,98.84
4005.00,98.84
4004.00,98.84
4003.00,98.84
4002.00,98.84
4001.00,98.84
4000.00,98.84
3999.00,98.84
3998.00,98.84
3997.00,98.84
3996.00,98.84
3995.00,98.84
3994.00,98.84
3993.00,98.84
3992.00,98.85
3991.00,98.85
3990.00,98.86
3989.00,98.86
3988.00,98.86
3987.00,98.87
3986.00,98.87
3985.00,98.87
3984.00,98.87
3983.00,98.87
3982.00,98.87
3981.00,98.87
3980.00,98.87
3979.00,98.87
3978.00,98.86
3977.00,98.86
3976.00,98.86
3975.00,98.86
3974.00,98.87
3973.00,98.87
3972.00,98.88
3971.00,98.88
3970.00,98.88
3969.00,98.89
3968.00,98.89
3967.00,98.90
3966.00,98.90
3965.00,98.90
3964.00,98.90
3963.00,98.90
3962.00,98.91
3961.00,98.92
3960.00,98.92
3959.00,98.92
3958.00,98.92
3957.00,98.92
3956.00,98.91
3955.00,98.91
3954.00,98.91
3953.00,98.91
3952.00,98.92
3951.00,98.92
3950.00,98.92
3949.00,98.92
3948.00,98.93
3947.00,98.93
3946.00,98.93
3945.00,98.93
3944.00,98.93
3943.00,98.93
3942.00,98.93
3941.00,98.93
3940.00,98.93
3939.00,98.94
3938.00,98.94
3937.00,98.95
3936.00,98.95
3935.00,98.96
3934.00,98.96
3933.00,98.96
3932.00,98.96
3931.00,98.95
3930.00,98.94
3929.00,98.94
3928.00,98.94
3927.00,98.95
3926.00,98.96
3925.00,98.96
3924.00,98.97
3923.00,98.97
3922.00,98.97
3921.00,98.98
3920.00,98.98
3919.00,98.98
3918.00,98.98
3917.00,98.98
3916.00,98.98
3915.00,98.98
3914.00,98.98
3913.00,98.98
3912.00,98.98
3911.00,98.99
3910.00,98.99
3909.00,98.99
3908.00,98.99
3907.00,99.00
3906.00,99.00
3905.00,99.01
3904.00,99.01
3903.00,99.01
3902.00,99.01
3901.00,99.02
3900.00,99.02
3899.00,99.02
3898.00,99.02
3897.00,99.03
3896.00,99.03
3895.00,99.03
3894.00,99.03
3893.00,99.03
3892.00,99.03
3891.00,99.03
3890.00,99.03
3889.00,99.04
3888.00,99.05
3887.00,99.06
3886.00,99.06
3885.00,99.05
3884.00,99.05
3883.00,99.05
3882.00,99.05
3881.00,99.06
3880.00,99.06
3879.00,99.06
3878.00,99.07
3877.00,99.07
3876.00,99.07
3875.00,99.06
3874.00,99.06
3873.00,99.06
3872.00,99.06
3871.00,99.06
3870.00,99.06
3869.00,99.05
3868.00,99.05
3867.00,99.05
3866.00,99.06
3865.00,99.07
3864.00,99.07
3863.00,99.07
3862.00,99.07
3861.00,99.07
3860.00,99.08
3859.00,99.07
3858.00,99.06
3857.00,99.05
3856.00,99.04
3855.00,99.04
3854.00,99.05
3853.00,99.06
3852.00,99.07
3851.00,99.07
3850.00,99.08
3849.00,99.09
3848.00,99.09
3847.00,99.10
3846.00,99.10
3845.00,99.10
3844.00,99.10
3843.00,99.09
3842.00,99.08
3841.00,99.08
3840.00,99.08
3839.00,99.08
3838.00,99.07
3837.00,99.07
3836.00,99.07
3835.00,99.07
3834.00,99.07
3833.00,99.07
3832.00,99.07
3831.00,99.07
3830.00,99.08
3829.00,99.08
3828.00,99.08
3827.00,99.08
3826.00,99.08
3825.00,99.08
3824.00,99.08
3823.00,99.08
3822.00,99.08
3821.00,99.08
3820.00,99.08
3819.00,99.08
3818.00,99.08
3817.00,99.09
3816.00,99.09
3815.00,99.09
3814.00,99.09
3813.00,99.10
3812.00,99.10
3811.00,99.09
3810.00,99.09
3809.00,99.09
3808.00,99.09
3807.00,99.09
3806.00,99.09
3805.00,99.10
3804.00,99.09
3803.00,99.09
3802.00,99.08
3801.00,99.08
3800.00,99.07
3799.00,99.08
3798.00,99.09
3797.00,99.09
3796.00,99.10
3795.00,99.10
3794.00,99.10
3793.00,99.09
3792.00,99.09
3791.00,99.09
3790.00,99.08
3789.00,99.08
3788.00,99.08
3787.00,99.07
3786.00,99.07
3785.00,99.07
3784.00,99.07
3783.00,99.07
3782.00,99.08
3781.00,99.09
3780.00,99.09
3779.00,99.08
3778.00,99.07
3777.00,99.07
3776.00,99.06
3775.00,99.06
3774.00,99.07
3773.00,99.07
3772.00,99.08
3771.00,99.07
3770.00,99.07
3769.00,99.06
3768.00,99.06
3767.00,99.06
3766.00,99.06
3765.00,99.06
3764.00,99.06
3763.00,99.06
3762.00,99.07
3761.00,99.06
3760.00,99.06
3759.00,99.06
3758.00,99.05
3757.00,99.05
3756.00,99.05
3755.00,99.05
3754.00,99.05
3753.00,99.06
3752.00,99.06
3751.00,99.05
3750.00,99.05
3749.00,99.05
3748.00,99.04
3747.00,99.03
3746.00,99.02
3745.00,99.01
3744.00,99.02
3743.00,99.03
3742.00,99.04
3741.00,99.04
3740.00,99.04
3739.00,99.03
3738.00,99.03
3737.00,99.03
3736.00,99.04
3735.00,99.04
3734.00,99.04
3733.00,99.02
3732.00,99.00
3731.00,98.99
3730.00,98.98
3729.00,98.98
3728.00,98.99
3727.00,98.99
3726.00,99.00
3725.00,99.00
3724.00,98.99
3723.00,98.98
3722.00,98.97
3721.00,98.95
3720.00,98.95
3719.00,98.95
3718.00,98.94
3717.00,98.94
3716.00,98.94
3715.00,98.93
3714.00,98.92
3713.00,98.92
3712.00,98.91
3711.00,98.90
3710.00,98.89
3709.00,98.89
3708.00,98.88
3707.00,98.87
3706.00,98.86
3705.00,98.86
3704.00,98.85
3703.00,98.84
3702.00,98.83
3701.00,98.82
3700.00,98.80
3699.00,98.79
3698.00,98.78
3697.00,98.76
3696.00,98.75
3695.00,98.74
3694.00,98.72
3693.00,98.71
3692.00,98.69
3691.00,98.67
3690.00,98.65
3689.00,98.62
3688.00,98.60
3687.00,98.58
3686.00,98.56
3685.00,98.54
3684.00,98.52
3683.00,98.50
3682.00,98.48
3681.00,98.46
3680.00,98.44
3679.00,98.41
3678.00,98.38
3677.00,98.34
3676.00,98.29
3675.00,98.24
3674.00,98.20
3673.00,98.17
3672.00,98.14
3671.00,98.09
3670.00,98.04
3669.00,97.99
3668.00,97.95
3667.00,97.91
3666.00,97.87
3665.00,97.82
3664.00,97.76
3663.00,97.71
3662.00,97.65
3661.00,97.60
3660.00,97.54
3659.00,97.48
3658.00,97.42
3657.00,97.36
3656.00,97.29
3655.00,97.23
3654.00,97.17
3653.00,97.12
3652.00,97.06
3651.00,96.99
3650.00,96.90
3649.00,96.80
3648.00,96.70
3647.00,96.61
3646.00,96.53
3645.00,96.46
3644.00,96.39
3643.00,96.31
3642.00,96.22
3641.00,96.13
3640.00,96.04
3639.00,95.95
3638.00,95.87
3637.00,95.78
3636.00,95.70
3635.00,95.61
3634.00,95.51
3633.00,95.42
3632.00,95.33
3631.00,95.22
3630.00,95.10
3629.00,94.97
3628.00,94.86
3627.00,94.76
3626.00,94.67
3625.00,94.58
3624.00,94.49
3623.00,94.39
3622.00,94.28
3621.00,94.17
3620.00,94.04
3619.00,93.91
3618.00,93.80
3617.00,93.69
3616.00,93.59
3615.00,93.48
3614.00,93.36
3613.00,93.23
3612.00,93.11
3611.00,93.00
3610.00,92.87
3609.00,92.73
3608.00,92.59
3607.00,92.45
3606.00,92.32
3605.00,92.21
3604.00,92.09
3603.00,91.96
3602.00,91.83
3601.00,91.69
3600.00,91.55
3599.00,91.41
3598.00,91.28
3597.00,91.14
3596.00,90.99
3595.00,90.83
3594.00,90.67
3593.00,90.53
3592.00,90.40
3591.00,90.27
3590.00,90.13
3589.00,89.97
3588.00,89.78
3587.00,89.60
3586.00,89.42
3585.00,89.27
3584.00,89.12
3583.00,88.97
3582.00,88.82
3581.00,88.66
3580.00,88.50
3579.00,88.33
3578.00,88.17
3577.00,88.00
3576.00,87.83
3575.00,87.66
3574.00,87.49
3573.00,87.32
3572.00,87.16
3571.00,87.01
3570.00,86.86
3569.00,86.69
3568.00,86.49
3567.00,86.29
3566.00,86.09
3565.00,85.91
3564.00,85.73
3563.00,85.56
3562.00,85.39
3561.00,85.21
3560.00,85.03
3559.00,84.85
3558.00,84.67
3557.00,84.50
3556.00,84.32
3555.00,84.14
3554.00,83.94
3553.00,83.75
3552.00,83.55
3551.00,83.37
3550.00,83.19
3549.00,83.01
3548.00,82.83
3547.00,82.63
3546.00,82.43
3545.00,82.22
3544.00,82.03
3543.00,81.84
3542.00,81.66
3541.00,81.47
3540.00,81.29
3539.00,81.10
3538.00,80.90
3537.00,80.71
3536.00,80.52
3535.00,80.33
3534.00,80.14
3533.00,79.96
3532.00,79.77
3531.00,79.58
3530.00,79.38
3529.00,79.19
3528.00,79.00
3527.00,78.81
3526.00,78.62
3525.00,78.42
3524.00,78.22
3523.00,78.02
3522.00,77.82
3521.00,77.62
3520.00,77.43
3519.00,77.23
3518.00,77.04
3517.00,76.85
3516.00,76.66
3515.00,76.47
3514.00,76.28
3513.00,76.09
3512.00,75.91
3511.00,75.72
3510.00,75.52
3509.00,75.32
3508.00,75.13
3507.00,74.94
3506.00,74.76
3505.00,74.56
3504.00,74.36
3503.00,74.17
3502.00,73.97
3501.00,73.79
3500.00,73.61
3499.00,73.42
3498.00,73.24
3497.00,73.05
3496.00,72.86
3495.00,72.67
3494.00,72.48
3493.00,72.29
3492.00,72.10
3491.00,71.91
3490.00,71.73
3489.00,71.55
3488.00,71.36
3487.00,71.17
3486.00,70.99
3485.00,70.81
3484.00,70.62
3483.00,70.44
3482.00,70.24
3481.00,70.05
3480.00,69.87
3479.00,69.69
3478.00,69.51
3477.00,69.34
3476.00,69.17
3475.00,68.99
3474.00,68.82
3473.00,68.64
3472.00,68.45
3471.00,68.27
3470.00,68.09
3469.00,67.91
3468.00,67.73
3467.00,67.56
3466.00,67.39
3465.00,67.22
3464.00,67.04
3463.00,66.87
3462.00,66.70
3461.00,66.52
3460.00,66.36
3459.00,66.19
3458.00,66.02
3457.00,65.84
3456.00,65.67
3455.00,65.50
3454.00,65.33
3453.00,65.17
3452.00,65.00
3451.00,64.84
3450.00,64.68
3449.00,64.51
3448.00,64.34
3447.00,64.17
3446.00,64.00
3445.00,63.84
3444.00,63.68
3443.00,63.53
3442.00,63.37
3441.00,63.21
3440.00,63.04
3439.00,62.87
3438.00,62.70
3437.00,62.54
3436.00,62.39
3435.00,62.24
3434.00,62.09
3433.00,61.95
3432.00,61.79
3431.00,61.64
3430.00,61.48
3429.00,61.33
3428.00,61.19
3427.00,61.05
3426.00,60.91
3425.00,60.76
3424.00,60.61
3423.00,60.46
3422.00,60.31
3421.00,60.16
3420.00,60.01
3419.00,59.87
3418.00,59.73
3417.00,59.59
3416.00,59.45
3415.00,59.31
3414.00,59.17
3413.00,59.03
3412.00,58.89
3411.00,58.75
3410.00,58.62
3409.00,58.48
3408.00,58.35
3407.00,58.23
3406.00,58.10
3405.00,57.97
3404.00,57.83
3403.00,57.69
3402.00,57.56
3401.00,57.43
3400.00,57.30
3399.00,57.18
3398.00,57.06
3397.00,56.94
3396.00,56.82
3395.00,56.70
3394.00,56.58
3393.00,56.46
3392.00,56.35
3391.00,56.24
3390.00,56.13
3389.00,56.03
3388.00,55.92
3387.00,55.80
3386.00,55.70
3385.00,55.59
3384.00,55.49
3383.00,55.38
3382.00,55.28
3381.00,55.17
3380.00,55.07
3379.00,54.97
3378.00,54.87
3377.00,54.77
3376.00,54.68
3375.00,54.58
3374.00,54.49
3373.00,54.39
3372.00,54.29
3371.00,54.19
3370.00,54.10
3369.00,54.01
3368.00,53.93
3367.00,53.85
3366.00,53.78
3365.00,53.70
3364.00,53.62
3363.00,53.54
3362.00,53.46
3361.00,53.39
3360.00,53.31
3359.00,53.24
3358.00,53.17
3357.00,53.10
3356.00,53.03
3355.00,52.96
3354.00,52.88
3353.00,52.81
3352.00,52.73
3351.00,52.67
3350.00,52.61
3349.00,52.55
3348.00,52.49
3347.00,52.43
3346.00,52.37
3345.00,52.31
3344.00,52.25
3343.00,52.19
3342.00,52.14
3341.00,52.08
3340.00,52.02
3339.00,51.98
3338.00,51.93
3337.00,51.89
3336.00,51.85
3335.00,51.80
3334.00,51.76
3333.00,51.71
3332.00,51.66
3331.00,51.61
3330.00,51.56
3329.00,51.52
3328.00,51.48
3327.00,51.43
3326.00,51.39
3325.00,51.35
3324.00,51.32
3323.00,51.28
3322.00,51.25
3321.00,51.22
3320.00,51.19
3319.00,51.16
3318.00,51.12
3317.00,51.09
3316.00,51.06
3315.00,51.02
3314.00,50.99
3313.00,50.96
3312.00,50.93
3311.00,50.90
3310.00,50.87
3309.00,50.84
3308.00,50.81
3307.00,50.79
3306.00,50.77
3305.00,50.75
3304.00,50.73
3303.00,50.71
3302.00,50.70
3301.00,50.68
3300.00,50.67
3299.00,50.65
3298.00,50.63
3297.00,50.61
3296.00,50.59
3295.00,50.58
3294.00,50.57
3293.00,50.56
3292.00,50.54
3291.00,50.53
3290.00,50.52
3289.00,50.52
3288.00,50.51
3287.00,50.50
3286.00,50.50
3285.00,50.49
3284.00,50.48
3283.00,50.48
3282.00,50.47
3281.00,50.48
3280.00,50.48
3279.00,50.48
3278.00,50.48
3277.00,50.47
3276.00,50.47
3275.00,50.46
3274.00,50.46
3273.00,50.46
3272.00,50.46
3271.00,50.48
3270.00,50.50
3269.00,50.51
3268.00,50.53
3267.00,50.54
3266.00,50.56
3265.00,50.57
3264.00,50.58
3263.00,50.60
3262.00,50.62
3261.00,50.63
3260.00,50.65
3259.00,50.67
3258.00,50.69
3257.00,50.72
3256.00,50.74
3255.00,50.77
3254.00,50.80
3253.00,50.83
3252.00,50.86
3251.00,50.90
3250.00,50.93
3249.00,50.96
3248.00,51.00
3247.00,51.03
3246.00,51.07
3245.00,51.11
3244.00,51.16
3243.00,51.20
3242.00,51.26
3241.00,51.31
3240.00,51.36
3239.00,51.41
3238.00,51.46
3237.00,51.51
3236.00,51.56
3235.00,51.62
3234.00,51.67
3233.00,51.73
3232.00,51.79
3231.00,51.86
3230.00,51.93
3229.00,51.99
3228.00,52.06
3227.00,52.13
3226.00,52.20
3225.00,52.28
3224.00,52.36
3223.00,52.44
3222.00,52.52
3221.00,52.60
3220.00,52.68
3219.00,52.76
3218.00,52.85
3217.00,52.93
3216.00,53.02
3215.00,53.10
3214.00,53.19
3213.00,53.29
3212.00,53.39
3211.00,53.49
3210.00,53.59
3209.00,53.69
3208.00,53.79
3207.00,53.89
3206.00,54.00
3205.00,54.11
3204.00,54.22
3203.00,54.32
3202.00,54.43
3201.00,54.54
3200.00,54.65
3199.00,54.77
3198.00,54.89
3197.00,55.01
3196.00,55.13
3195.00,55.25
3194.00,55.37
3193.00,55.49
3192.00,55.61
3191.00,55.74
3190.00,55.87
3189.00,56.00
3188.00,56.13
3187.00,56.27
3186.00,56.40
3185.00,56.54
3184.00,56.67
3183.00,56.81
3182.00,56.95
3181.00,57.10
3180.00,57.24
3179.00,57.39
3178.00,57.53
3177.00,57.68
3176.00,57.82
3175.00,57.97
3174.00,58.11
3173.00,58.26
3172.00,58.42
3171.00,58.58
3170.00,58.73
3169.00,58.89
3168.00,59.05
3167.00,59.21
3166.00,59.37
3165.00,59.53
3164.00,59.69
3163.00,59.85
3162.00,60.01
3161.00,60.18
3160.00,60.35
3159.00,60.51
3158.00,60.68
3157.00,60.85
3156.00,61.01
3155.00,61.18
3154.00,61.35
3153.00,61.52
3152.00,61.70
3151.00,61.88
3150.00,62.06
3149.00,62.23
3148.00,62.41
3147.00,62.58
3146.00,62.76
3145.00,62.93
3144.00,63.11
3143.00,63.29
3142.00,63.47
3141.00,63.65
3140.00,63.84
3139.00,64.02
3138.00,64.21
3137.00,64.39
3136.00,64.57
3135.00,64.76
3134.00,64.94
3133.00,65.12
3132.00,65.31
3131.00,65.49
3130.00,65.68
3129.00,65.87
3128.00,66.06
3127.00,66.24
3126.00,66.43
3125.00,66.62
3124.00,66.80
3123.00,66.98
3122.00,67.17
3121.00,67.36
3120.00,67.55
3119.00,67.73
3118.00,67.92
3117.00,68.11
3116.00,68.30
3115.00,68.49
3114.00,68.68
3113.00,68.87
3112.00,69.06
3111.00,69.24
3110.00,69.43
3109.00,69.62
3108.00,69.82
3107.00,70.02
3106.00,70.21
3105.00,70.40
3104.00,70.59
3103.00,70.77
3102.00,70.96
3101.00,71.15
3100.00,71.34
3099.00,71.52
3098.00,71.71
3097.00,71.90
3096.00,72.08
3095.00,72.27
3094.00,72.46
3093.00,72.64
3092.00,72.82
3091.00,73.01
3090.00,73.19
3089.00,73.38
3088.00,73.57
3087.00,73.75
3086.00,73.93
3085.00,74.11
3084.00,74.29
3083.00,74.47
3082.00,74.66
3081.00,74.84
3080.00,75.02
3079.00,75.20
3078.00,75.38
3077.00,75.56
3076.00,75.74
3075.00,75.92
3074.00,76.09
3073.00,76.27
3072.00,76.45
3071.00,76.62
3070.00,76.80
3069.00,76.98
3068.00,77.15
3067.00,77.32
3066.00,77.49
3065.00,77.66
3064.00,77.83
3063.00,78.00
3062.00,78.16
3061.00,78.33
3060.00,78.49
3059.00,78.65
3058.00,78.81
3057.00,78.98
3056.00,79.15
3055.00,79.31
3054.00,79.48
3053.00,79.64
3052.00,79.80
3051.00,79.96
3050.00,80.11
3049.00,80.27
3048.00,80.42
3047.00,80.57
3046.00,80.73
3045.00,80.88
3044.00,81.03
3043.00,81.18
3042.00,81.33
3041.00,81.48
3040.00,81.62
3039.00,81.77
3038.00,81.91
3037.00,82.05
3036.00,82.19
3035.00,82.33
3034.00,82.48
3033.00,82.62
3032.00,82.75
3031.00,82.88
3030.00,83.02
3029.00,83.15
3028.00,83.28
3027.00,83.41
3026.00,83.53
3025.00,83.66
3024.00,83.78
3023.00,83.91
3022.00,84.03
3021.00,84.15
3020.00,84.26
3019.00,84.37
3018.00,84.47
3017.00,84.58
3016.00,84.68
3015.00,84.79
3014.00,84.89
3013.00,84.98
3012.00,85.07
3011.00,85.16
3010.00,85.24
3009.00,85.32
3008.00,85.39
3007.00,85.46
3006.00,85.53
3005.00,85.59
3004.00,85.65
3003.00,85.70
3002.00,85.74
3001.00,85.79
3000.00,85.82
2999.00,85.85
2998.00,85.87
2997.00,85.89
2996.00,85.90
2995.00,85.90
2994.00,85.89
2993.00,85.89
2992.00,85.88
2991.00,85.87
2990.00,85.84
2989.00,85.81
2988.00,85.77
2987.00,85.73
2986.00,85.69
2985.00,85.64
2984.00,85.59
2983.00,85.54
2982.00,85.48
2981.00,85.42
2980.00,85.35
2979.00,85.28
2978.00,85.21
2977.00,85.14
2976.00,85.07
2975.00,85.00
2974.00,84.92
2973.00,84.84
2972.00,84.76
2971.00,84.68
2970.00,84.60
2969.00,84.52
2968.00,84.43
2967.00,84.33
2966.00,84.22
2965.00,84.10
2964.00,83.97
2963.00,83.84
2962.00,83.70
2961.00,83.55
2960.00,83.39
2959.00,83.22
2958.00,83.04
2957.00,82.86
2956.00,82.67
2955.00,82.48
2954.00,82.28
2953.00,82.08
2952.00,81.88
2951.00,81.67
2950.00,81.47
2949.00,81.27
2948.00,81.08
2947.00,80.88
2946.00,80.70
2945.00,80.52
2944.00,80.35
2943.00,80.18
2942.00,80.03
2941.00,79.88
2940.00,79.75
2939.00,79.64
2938.00,79.53
2937.00,79.45
2936.00,79.37
2935.00,79.32
2934.00,79.28
2933.00,79.25
2932.00,79.25
2931.00,79.26
2930.00,79.28
2929.00,79.31
2928.00,79.36
2927.00,79.41
2926.00,79.46
2925.00,79.53
2924.00,79.61
2923.00,79.68
2922.00,79.76
2921.00,79.84
2920.00,79.92
2919.00,80.00
2918.00,80.09
2917.00,80.18
2916.00,80.28
2915.00,80.37
2914.00,80.46
2913.00,80.55
2912.00,80.63
2911.00,80.71
2910.00,80.79
2909.00,80.86
2908.00,80.92
2907.00,80.97
2906.00,81.02
2905.00,81.05
2904.00,81.08
2903.00,81.11
2902.00,81.13
2901.00,81.14
2900.00,81.16
2899.00,81.18
2898.00,81.19
2897.00,81.20
2896.00,81.21
2895.00,81.22
2894.00,81.22
2893.00,81.22
2892.00,81.23
2891.00,81.24
2890.00,81.26
2889.00,81.28
2888.00,81.32
2887.00,81.35
2886.00,81.40
2885.00,81.46
2884.00,81.52
2883.00,81.59
2882.00,81.68
2881.00,81.77
2880.00,81.88
2879.00,82.00
2878.00,82.13
2877.00,82.26
2876.00,82.40
2875.00,82.55
2874.00,82.69
2873.00,82.84
2872.00,82.98
2871.00,83.14
2870.00,83.29
2869.00,83.45
2868.00,83.60
2867.00,83.76
2866.00,83.91
2865.00,84.06
2864.00,84.21
2863.00,84.36
2862.00,84.49
2861.00,84.63
2860.00,84.75
2859.00,84.88
2858.00,85.00
2857.00,85.12
2856.00,85.23
2855.00,85.34
2854.00,85.46
2853.00,85.56
2852.00,85.67
2851.00,85.78
2850.00,85.88
2849.00,85.99
2848.00,86.11
2847.00,86.24
2846.00,86.36
2845.00,86.49
2844.00,86.61
2843.00,86.72
2842.00,86.84
2841.00,86.95
2840.00,87.06
2839.00,87.17
2838.00,87.28
2837.00,87.39
2836.00,87.49
2835.00,87.59
2834.00,87.68
2833.00,87.78
2832.00,87.87
2831.00,87.96
2830.00,88.06
2829.00,88.15
2828.00,88.23
2827.00,88.32
2826.00,88.40
2825.00,88.49
2824.00,88.57
2823.00,88.65
2822.00,88.73
2821.00,88.81
2820.00,88.89
2819.00,88.97
2818.00,89.04
2817.00,89.12
2816.00,89.19
2815.00,89.26
2814.00,89.34
2813.00,89.40
2812.00,89.47
2811.00,89.54
2810.00,89.61
2809.00,89.67
2808.00,89.74
2807.00,89.80
2806.00,89.87
2805.00,89.93
2804.00,90.00
2803.00,90.06
2802.00,90.12
2801.00,90.18
2800.00,90.24
2799.00,90.29
2798.00,90.35
2797.00,90.41
2796.00,90.46
2795.00,90.52
2794.00,90.57
2793.00,90.61
2792.00,90.66
2791.00,90.71
2790.00,90.76
2789.00,90.81
2788.00,90.86
2787.00,90.91
2786.00,90.95
2785.00,91.00
2784.00,91.04
2783.00,91.08
2782.00,91.13
2781.00,91.17
2780.00,91.22
2779.00,91.26
2778.00,91.29
2777.00,91.33
2776.00,91.37
2775.00,91.42
2774.00,91.46
2773.00,91.50
2772.00,91.54
2771.00,91.57
2770.00,91.60
2769.00,91.64
2768.00,91.67
2767.00,91.70
2766.00,91.74
2765.00,91.77
2764.00,91.80
2763.00,91.83
2762.00,91.86
2761.00,91.89
2760.00,91.92
2759.00,91.95
2758.00,91.98
2757.00,92.00
2756.00,92.03
2755.00,92.05
2754.00,92.08
2753.00,92.10
2752.00,92.12
2751.00,92.15
2750.00,92.18
2749.00,92.20
2748.00,92.23
2747.00,92.25
2746.00,92.27
2745.00,92.29
2744.00,92.31
2743.00,92.33
2742.00,92.35
2741.00,92.37
2740.00,92.38
2739.00,92.41
2738.00,92.43
2737.00,92.44
2736.00,92.46
2735.00,92.48
2734.00,92.50
2733.00,92.52
2732.00,92.54
2731.00,92.55
2730.00,92.57
2729.00,92.59
2728.00,92.60
2727.00,92.62
2726.00,92.65
2725.00,92.67
2724.00,92.69
2723.00,92.71
2722.00,92.73
2721.00,92.75
2720.00,92.78
2719.00,92.80
2718.00,92.83
2717.00,92.85
2716.00,92.87
2715.00,92.89
2714.00,92.91
2713.00,92.93
2712.00,92.95
2711.00,92.98
2710.00,93.00
2709.00,93.02
2708.00,93.05
2707.00,93.08
2706.00,93.11
2705.00,93.13
2704.00,93.15
2703.00,93.17
2702.00,93.19
2701.00,93.21
2700.00,93.24
2699.00,93.26
2698.00,93.28
2697.00,93.31
2696.00,93.33
2695.00,93.36
2694.00,93.39
2693.00,93.42
2692.00,93.44
2691.00,93.47
2690.00,93.49
2689.00,93.52
2688.00,93.54
2687.00,93.57
2686.00,93.60
2685.00,93.63
2684.00,93.66
2683.00,93.69
2682.00,93.72
2681.00,93.75
2680.00,93.78
2679.00,93.81
2678.00,93.84
2677.00,93.87
2676.00,93.91
2675.00,93.94
2674.00,93.97
2673.00,94.00
2672.00,94.03
2671.00,94.06
2670.00,94.09
2669.00,94.12
2668.00,94.16
2667.00,94.19
2666.00,94.22
2665.00,94.25
2664.00,94.29
2663.00,94.32
2662.00,94.35
2661.00,94.37
2660.00,94.40
2659.00,94.43
2658.00,94.47
2657.00,94.50
2656.00,94.54
2655.00,94.57
2654.00,94.60
2653.00,94.64
2652.00,94.67
2651.00,94.70
2650.00,94.73
2649.00,94.76
2648.00,94.80
2647.00,94.83
2646.00,94.87
2645.00,94.90
2644.00,94.93
2643.00,94.96
2642.00,94.99
2641.00,95.01
2640.00,95.04
2639.00,95.07
2638.00,95.10
2637.00,95.13
2636.00,95.16
2635.00,95.19
2634.00,95.22
2633.00,95.25
2632.00,95.28
2631.00,95.32
2630.00,95.34
2629.00,95.37
2628.00,95.39
2627.00,95.42
2626.00,95.45
2625.00,95.48
2624.00,95.50
2623.00,95.53
2622.00,95.55
2621.00,95.58
2620.00,95.61
2619.00,95.64
2618.00,95.66
2617.00,95.69
2616.00,95.71
2615.00,95.72
2614.00,95.75
2613.00,95.77
2612.00,95.79
2611.00,95.81
2610.00,95.84
2609.00,95.86
2608.00,95.88
2607.00,95.90
2606.00,95.92
2605.00,95.94
2604.00,95.96
2603.00,95.98
2602.00,95.99
2601.00,96.01
2600.00,96.02
2599.00,96.04
2598.00,96.06
2597.00,96.09
2596.00,96.11
2595.00,96.12
2594.00,96.14
2593.00,96.15
2592.00,96.16
2591.00,96.17
2590.00,96.19
2589.00,96.20
2588.00,96.22
2587.00,96.24
2586.00,96.25
2585.00,96.26
2584.00,96.28
2583.00,96.29
2582.00,96.31
2581.00,96.32
2580.00,96.34
2579.00,96.36
2578.00,96.37
2577.00,96.38
2576.00,96.39
2575.00,96.40
2574.00,96.41
2573.00,96.43
2572.00,96.44
2571.00,96.46
2570.00,96.47
2569.00,96.48
2568.00,96.49
2567.00,96.50
2566.00,96.51
2565.00,96.52
2564.00,96.53
2563.00,96.54
2562.00,96.55
2561.00,96.56
2560.00,96.57
2559.00,96.59
2558.00,96.60
2557.00,96.61
2556.00,96.62
2555.00,96.63
2554.00,96.64
2553.00,96.65
2552.00,96.66
2551.00,96.67
2550.00,96.68
2549.00,96.69
2548.00,96.71
2547.00,96.72
2546.00,96.73
2545.00,96.74
2544.00,96.76
2543.00,96.77
2542.00,96.78
2541.00,96.79
2540.00,96.80
2539.00,96.81
2538.00,96.82
2537.00,96.82
2536.00,96.83
2535.00,96.84
2534.00,96.85
2533.00,96.86
2532.00,96.87
2531.00,96.88
2530.00,96.88
2529.00,96.89
2528.00,96.90
2527.00,96.92
2526.00,96.93
2525.00,96.94
2524.00,96.94
2523.00,96.94
2522.00,96.95
2521.00,96.96
2520.00,96.98
2519.00,97.00
2518.00,97.01
2517.00,97.02
2516.00,97.03
2515.00,97.04
2514.00,97.05
2513.00,97.05
2512.00,97.06
2511.00,97.07
2510.00,97.08
2509.00,97.09
2508.00,97.11
2507.00,97.13
2506.00,97.15
2505.00,97.16
2504.00,97.16
2503.00,97.17
2502.00,97.17
2501.00,97.17
2500.00,97.18
2499.00,97.20
2498.00,97.21
2497.00,97.21
2496.00,97.22
2495.00,97.24
2494.00,97.26
2493.00,97.28
2492.00,97.30
2491.00,97.32
2490.00,97.33
2489.00,97.34
2488.00,97.35
2487.00,97.36
2486.00,97.37
2485.00,97.38
2484.00,97.39
2483.00,97.40
2482.00,97.42
2481.00,97.43
2480.00,97.44
2479.00,97.45
2478.00,97.46
2477.00,97.47
2476.00,97.49
2475.00,97.50
2474.00,97.52
2473.00,97.53
2472.00,97.55
2471.00,97.57
2470.00,97.58
2469.00,97.59
2468.00,97.60
2467.00,97.62
2466.00,97.65
2465.00,97.67
2464.00,97.69
2463.00,97.71
2462.00,97.72
2461.00,97.73
2460.00,97.74
2459.00,97.76
2458.00,97.77
2457.00,97.79
2456.00,97.81
2455.00,97.83
2454.00,97.85
2453.00,97.86
2452.00,97.88
2451.00,97.89
2450.00,97.90
2449.00,97.91
2448.00,97.92
2447.00,97.93
2446.00,97.95
2445.00,97.97
2444.00,97.99
2443.00,98.00
2442.00,98.01
2441.00,98.02
2440.00,98.02
2439.00,98.03
2438.00,98.05
2437.00,98.06
2436.00,98.08
2435.00,98.09
2434.00,98.10
2433.00,98.12
2432.00,98.13
2431.00,98.15
2430.00,98.17
2429.00,98.19
2428.00,98.20
2427.00,98.21
2426.00,98.22
2425.00,98.23
2424.00,98.24
2423.00,98.25
2422.00,98.25
2421.00,98.26
2420.00,98.26
2419.00,98.28
2418.00,98.30
2417.00,98.32
2416.00,98.33
2415.00,98.34
2414.00,98.35
2413.00,98.36
2412.00,98.36
2411.00,98.37
2410.00,98.38
2409.00,98.39
2408.00,98.40
2407.00,98.41
2406.00,98.42
2405.00,98.42
2404.00,98.42
2403.00,98.43
2402.00,98.44
2401.00,98.45
2400.00,98.45
2399.00,98.46
2398.00,98.47
2397.00,98.48
2396.00,98.50
2395.00,98.50
2394.00,98.51
2393.00,98.51
2392.00,98.52
2391.00,98.52
2390.00,98.53
2389.00,98.53
2388.00,98.53
2387.00,98.54
2386.00,98.54
2385.00,98.55
2384.00,98.55
2383.00,98.56
2382.00,98.56
2381.00,98.56
2380.00,98.56
2379.00,98.57
2378.00,98.58
2377.00,98.58
2376.00,98.58
2375.00,98.59
2374.00,98.59
2373.00,98.60
2372.00,98.60
2371.00,98.60
2370.00,98.61
2369.00,98.61
2368.00,98.61
2367.00,98.62
2366.00,98.63
2365.00,98.64
2364.00,98.65
2363.00,98.66
2362.00,98.66
2361.00,98.65
2360.00,98.65
2359.00,98.65
2358.00,98.65
2357.00,98.64
2356.00,98.64
2355.00,98.65
2354.00,98.66
2353.00,98.66
2352.00,98.66
2351.00,98.66
2350.00,98.67
2349.00,98.67
2348.00,98.67
2347.00,98.67
2346.00,98.68
2345.00,98.68
2344.00,98.68
2343.00,98.68
2342.00,98.69
2341.00,98.68
2340.00,98.68
2339.00,98.68
2338.00,98.68
2337.00,98.69
2336.00,98.69
2335.00,98.69
2334.00,98.70
2333.00,98.69
2332.00,98.69
2331.00,98.70
2330.00,98.70
2329.00,98.71
2328.00,98.71
2327.00,98.71
2326.00,98.71
2325.00,98.71
2324.00,98.72
2323.00,98.72
2322.00,98.72
2321.00,98.71
2320.00,98.71
2319.00,98.71
2318.00,98.72
2317.00,98.72
2316.00,98.73
2315.00,98.73
2314.00,98.73
2313.00,98.72
2312.00,98.71
2311.00,98.70
2310.00,98.70
2309.00,98.70
2308.00,98.70
2307.00,98.71
2306.00,98.71
2305.00,98.71
2304.00,98.70
2303.00,98.70
2302.00,98.71
2301.00,98.72
2300.00,98.73
2299.00,98.73
2298.00,98.73
2297.00,98.73
2296.00,98.72
2295.00,98.71
2294.00,98.71
2293.00,98.71
2292.00,98.71
2291.00,98.72
2290.00,98.73
2289.00,98.73
2288.00,98.72
2287.00,98.71
2286.00,98.70
2285.00,98.69
2284.00,98.68
2283.00,98.68
2282.00,98.68
2281.00,98.68
2280.00,98.68
2279.00,98.68
2278.00,98.68
2277.00,98.67
2276.00,98.68
2275.00,98.68
2274.00,98.69
2273.00,98.69
2272.00,98.68
2271.00,98.67
2270.00,98.66
2269.00,98.66
2268.00,98.66
2267.00,98.68
2266.00,98.68
2265.00,98.69
2264.00,98.68
2263.00,98.67
2262.00,98.67
2261.00,98.66
2260.00,98.65
2259.00,98.65
2258.00,98.65
2257.00,98.65
2256.00,98.63
2255.00,98.63
2254.00,98.63
2253.00,98.64
2252.00,98.65
2251.00,98.64
2250.00,98.64
2249.00,98.62
2248.00,98.60
2247.00,98.59
2246.00,98.58
2245.00,98.58
2244.00,98.58
2243.00,98.59
2242.00,98.60
2241.00,98.60
2240.00,98.59
2239.00,98.57
2238.00,98.57
2237.00,98.57
2236.00,98.57
2235.00,98.57
2234.00,98.56
2233.00,98.55
2232.00,98.54
2231.00,98.53
2230.00,98.54
2229.00,98.54
2228.00,98.54
2227.00,98.54
2226.00,98.54
2225.00,98.53
2224.00,98.52
2223.00,98.52
2222.00,98.51
2221.00,98.50
2220.00,98.48
2219.00,98.47
2218.00,98.46
2217.00,98.45
2216.00,98.44
2215.00,98.43
2214.00,98.43
2213.00,98.43
2212.00,98.43
2211.00,98.44
2210.00,98.46
2209.00,98.46
2208.00,98.45
2207.00,98.43
2206.00,98.42
2205.00,98.41
2204.00,98.41
2203.00,98.42
2202.00,98.42
2201.00,98.42
2200.00,98.40
2199.00,98.38
2198.00,98.36
2197.00,98.35
2196.00,98.35
2195.00,98.36
2194.00,98.37
2193.00,98.38
2192.00,98.37
2191.00,98.36
2190.00,98.35
2189.00,98.34
2188.00,98.33
2187.00,98.32
2186.00,98.32
2185.00,98.30
2184.00,98.29
2183.00,98.28
2182.00,98.29
2181.00,98.30
2180.00,98.30
2179.00,98.30
2178.00,98.29
2177.00,98.27
2176.00,98.24
2175.00,98.23
2174.00,98.24
2173.00,98.24
2172.00,98.24
2171.00,98.24
2170.00,98.24
2169.00,98.24
2168.00,98.25
2167.00,98.25
2166.00,98.25
2165.00,98.23
2164.00,98.22
2163.00,98.22
2162.00,98.24
2161.00,98.25
2160.00,98.24
2159.00,98.24
2158.00,98.23
2157.00,98.21
2156.00,98.17
2155.00,98.15
2154.00,98.13
2153.00,98.12
2152.00,98.12
2151.00,98.13
2150.00,98.16
2149.00,98.18
2148.00,98.18
2147.00,98.18
2146.00,98.18
2145.00,98.16
2144.00,98.14
2143.00,98.12
2142.00,98.11
2141.00,98.10
2140.00,98.09
2139.00,98.08
2138.00,98.08
2137.00,98.08
2136.00,98.09
2135.00,98.10
2134.00,98.12
2133.00,98.12
2132.00,98.11
2131.00,98.11
2130.00,98.11
2129.00,98.10
2128.00,98.08
2127.00,98.07
2126.00,98.06
2125.00,98.07
2124.00,98.08
2123.00,98.09
2122.00,98.10
2121.00,98.10
2120.00,98.10
2119.00,98.11
2118.00,98.11
2117.00,98.11
2116.00,98.11
2115.00,98.12
2114.00,98.13
2113.00,98.13
2112.00,98.13
2111.00,98.14
2110.00,98.14
2109.00,98.14
2108.00,98.12
2107.00,98.12
2106.00,98.12
2105.00,98.12
2104.00,98.13
2103.00,98.14
2102.00,98.15
2101.00,98.15
2100.00,98.14
2099.00,98.14
2098.00,98.16
2097.00,98.18
2096.00,98.20
2095.00,98.22
2094.00,98.23
2093.00,98.22
2092.00,98.22
2091.00,98.22
2090.00,98.24
2089.00,98.25
2088.00,98.26
2087.00,98.27
2086.00,98.28
2085.00,98.28
2084.00,98.29
2083.00,98.29
2082.00,98.30
2081.00,98.29
2080.00,98.29
2079.00,98.29
2078.00,98.30
2077.00,98.31
2076.00,98.31
2075.00,98.32
2074.00,98.33
2073.00,98.34
2072.00,98.34
2071.00,98.34
2070.00,98.34
2069.00,98.35
2068.00,98.36
2067.00,98.38
2066.00,98.41
2065.00,98.42
2064.00,98.41
2063.00,98.41
2062.00,98.40
2061.00,98.39
2060.00,98.39
2059.00,98.41
2058.00,98.45
2057.00,98.47
2056.00,98.48
2055.00,98.48
2054.00,98.48
2053.00,98.48
2052.00,98.48
2051.00,98.48
2050.00,98.49
2049.00,98.51
2048.00,98.53
2047.00,98.56
2046.00,98.58
2045.00,98.58
2044.00,98.59
2043.00,98.61
2042.00,98.63
2041.00,98.63
2040.00,98.62
2039.00,98.63
2038.00,98.66
2037.00,98.68
2036.00,98.68
2035.00,98.67
2034.00,98.66
2033.00,98.67
2032.00,98.68
2031.00,98.69
2030.00,98.70
2029.00,98.69
2028.00,98.69
2027.00,98.70
2026.00,98.73
2025.00,98.76
2024.00,98.78
2023.00,98.79
2022.00,98.79
2021.00,98.77
2020.00,98.75
2019.00,98.75
2018.00,98.77
2017.00,98.80
2016.00,98.82
2015.00,98.84
2014.00,98.86
2013.00,98.86
2012.00,98.86
2011.00,98.88
2010.00,98.91
2009.00,98.94
2008.00,98.94
2007.00,98.94
2006.00,98.94
2005.00,98.91
2004.00,98.89
2003.00,98.88
2002.00,98.89
2001.00,98.89
2000.00,98.88
1999.00,98.89
1998.00,98.91
1997.00,98.92
1996.00,98.92
1995.00,98.93
1994.00,98.96
1993.00,99.00
1992.00,99.01
1991.00,99.01
1990.00,99.00
1989.00,98.98
1988.00,98.98
1987.00,99.00
1986.00,99.04
1985.00,99.05
1984.00,99.04
1983.00,99.03
1982.00,99.02
1981.00,99.02
1980.00,99.02
1979.00,99.04
1978.00,99.05
1977.00,99.05
1976.00,99.03
1975.00,99.04
1974.00,99.07
1973.00,99.07
1972.00,99.04
1971.00,99.02
1970.00,99.01
1969.00,98.99
1968.00,98.98
1967.00,98.98
1966.00,99.02
1965.00,99.05
1964.00,99.06
1963.00,99.06
1962.00,99.06
1961.00,99.05
1960.00,99.05
1959.00,99.06
1958.00,99.08
1957.00,99.09
1956.00,99.07
1955.00,99.06
1954.00,99.05
1953.00,99.05
1952.00,99.06
1951.00,99.07
1950.00,99.08
1949.00,99.08
1948.00,99.06
1947.00,99.05
1946.00,99.04
1945.00,99.03
1944.00,99.03
1943.00,99.04
1942.00,99.06
1941.00,99.06
1940.00,99.06
1939.00,99.06
1938.00,99.07
1937.00,99.07
1936.00,99.06
1935.00,99.06
1934.00,99.06
1933.00,99.06
1932.00,99.06
1931.00,99.07
1930.00,99.08
1929.00,99.08
1928.00,99.08
1927.00,99.08
1926.00,99.08
1925.00,99.08
1924.00,99.08
1923.00,99.08
1922.00,99.08
1921.00,99.07
1920.00,99.05
1919.00,99.06
1918.00,99.07
1917.00,99.08
1916.00,99.09
1915.00,99.10
1914.00,99.11
1913.00,99.11
1912.00,99.10
1911.00,99.08
1910.00,99.08
1909.00,99.08
1908.00,99.07
1907.00,99.08
1906.00,99.09
1905.00,99.10
1904.00,99.10
1903.00,99.09
1902.00,99.09
1901.00,99.09
1900.00,99.08
1899.00,99.09
1898.00,99.09
1897.00,99.10
1896.00,99.09
1895.00,99.09
1894.00,99.09
1893.00,99.07
1892.00,99.06
1891.00,99.07
1890.00,99.08
1889.00,99.08
1888.00,99.07
1887.00,99.07
1886.00,99.08
1885.00,99.09
1884.00,99.09
1883.00,99.09
1882.00,99.10
1881.00,99.09
1880.00,99.07
1879.00,99.07
1878.00,99.08
1877.00,99.09
1876.00,99.09
1875.00,99.09
1874.00,99.09
1873.00,99.07
1872.00,99.04
1871.00,99.03
1870.00,99.04
1869.00,99.05
1868.00,99.07
1867.00,99.08
1866.00,99.09
1865.00,99.10
1864.00,99.10
1863.00,99.10
1862.00,99.09
1861.00,99.09
1860.00,99.09
1859.00,99.09
1858.00,99.10
1857.00,99.10
1856.00,99.09
1855.00,99.09
1854.00,99.10
1853.00,99.10
1852.00,99.10
1851.00,99.09
1850.00,99.09
1849.00,99.07
1848.00,99.05
1847.00,99.04
1846.00,99.05
1845.00,99.07
1844.00,99.08
1843.00,99.09
1842.00,99.09
1841.00,99.10
1840.00,99.10
1839.00,99.10
1838.00,99.10
1837.00,99.10
1836.00,99.10
1835.00,99.09
1834.00,99.08
1833.00,99.07
1832.00,99.06
1831.00,99.06
1830.00,99.08
1829.00,99.09
1828.00,99.07
1827.00,99.07
1826.00,99.07
1825.00,99.08
1824.00,99.08
1823.00,99.09
1822.00,99.10
1821.00,99.11
1820.00,99.10
1819.00,99.10
1818.00,99.11
1817.00,99.11
1816.00,99.10
1815.00,99.09
1814.00,99.08
1813.00,99.08
1812.00,99.08
1811.00,99.09
1810.00,99.11
1809.00,99.11
1808.00,99.11
1807.00,99.11
1806.00,99.11
1805.00,99.09
1804.00,99.06
1803.00,99.05
1802.00,99.05
1801.00,99.06
1800.00,99.08
1799.00,99.09
1798.00,99.09
1797.00,99.08
1796.00,99.06
1795.00,99.05
1794.00,99.06
1793.00,99.07
1792.00,99.08
1791.00,99.09
1790.00,99.10
1789.00,99.11
1788.00,99.10
1787.00,99.09
1786.00,99.10
1785.00,99.10
1784.00,99.09
1783.00,99.09
1782.00,99.09
1781.00,99.10
1780.00,99.10
1779.00,99.10
1778.00,99.10
1777.00,99.09
1776.00,99.07
1775.00,99.06
1774.00,99.08
1773.00,99.10
1772.00,99.11
1771.00,99.10
1770.00,99.09
1769.00,99.09
1768.00,99.09
1767.00,99.10
1766.00,99.10
1765.00,99.09
1764.00,99.08
1763.00,99.08
1762.00,99.08
1761.00,99.08
1760.00,99.07
1759.00,99.05
1758.00,99.05
1757.00,99.05
1756.00,99.03
1755.00,99.00
1754.00,98.97
1753.00,98.95
1752.00,98.92
1751.00,98.90
1750.00,98.89
1749.00,98.87
1748.00,98.85
1747.00,98.82
1746.00,98.80
1745.00,98.76
1744.00,98.72
1743.00,98.69
1742.00,98.66
1741.00,98.64
1740.00,98.61
1739.00,98.55
1738.00,98.48
1737.00,98.41
1736.00,98.36
1735.00,98.33
1734.00,98.31
1733.00,98.26
1732.00,98.22
1731.00,98.19
1730.00,98.17
1729.00,98.14
1728.00,98.11
1727.00,98.08
1726.00,98.05
1725.00,98.01
1724.00,97.97
1723.00,97.92
1722.00,97.86
1721.00,97.80
1720.00,97.73
1719.00,97.68
1718.00,97.65
1717.00,97.61
1716.00,97.57
1715.00,97.55
1714.00,97.53
1713.00,97.50
1712.00,97.45
1711.00,97.39
1710.00,97.34
1709.00,97.27
1708.00,97.19
1707.00,97.12
1706.00,97.04
1705.00,96.94
1704.00,96.83
1703.00,96.73
1702.00,96.67
1701.00,96.59
1700.00,96.46
1699.00,96.33
1698.00,96.24
1697.00,96.16
1696.00,96.05
1695.00,95.92
1694.00,95.80
1693.00,95.69
1692.00,95.56
1691.00,95.41
1690.00,95.24
1689.00,95.06
1688.00,94.89
1687.00,94.73
1686.00,94.58
1685.00,94.40
1684.00,94.14
1683.00,93.90
1682.00,93.73
1681.00,93.57
1680.00,93.39
1679.00,93.21
1678.00,93.04
1677.00,92.86
1676.00,92.63
1675.00,92.38
1674.00,92.15
1673.00,91.94
1672.00,91.75
1671.00,91.55
1670.00,91.33
1669.00,91.09
1668.00,90.87
1667.00,90.69
1666.00,90.53
1665.00,90.37
1664.00,90.17
1663.00,89.96
1662.00,89.76
1661.00,89.59
1660.00,89.42
1659.00,89.27
1658.00,89.12
1657.00,88.96
1656.00,88.80
1655.00,88.67
1654.00,88.57
1653.00,88.42
1652.00,88.26
1651.00,88.16
1650.00,88.11
1649.00,88.07
1648.00,88.03
1647.00,87.99
1646.00,87.97
1645.00,87.96
1644.00,87.95
1643.00,87.96
1642.00,87.98
1641.00,88.01
1640.00,88.02
1639.00,88.03
1638.00,88.08
1637.00,88.18
1636.00,88.31
1635.00,88.44
1634.00,88.57
1633.00,88.69
1632.00,88.81
1631.00,88.93
1630.00,89.08
1629.00,89.24
1628.00,89.41
1627.00,89.57
1626.00,89.73
1625.00,89.91
1624.00,90.12
1623.00,90.34
1622.00,90.55
1621.00,90.73
1620.00,90.88
1619.00,91.04
1618.00,91.26
1617.00,91.51
1616.00,91.74
1615.00,91.93
1614.00,92.10
1613.00,92.26
1612.00,92.43
1611.00,92.60
1610.00,92.76
1609.00,92.92
1608.00,93.08
1607.00,93.23
1606.00,93.38
1605.00,93.52
1604.00,93.65
1603.00,93.79
1602.00,93.92
1601.00,94.05
1600.00,94.17
1599.00,94.29
1598.00,94.41
1597.00,94.52
1596.00,94.64
1595.00,94.75
1594.00,94.86
1593.00,94.97
1592.00,95.08
1591.00,95.19
1590.00,95.31
1589.00,95.42
1588.00,95.53
1587.00,95.63
1586.00,95.74
1585.00,95.85
1584.00,95.96
1583.00,96.08
1582.00,96.19
1581.00,96.29
1580.00,96.36
1579.00,96.43
1578.00,96.52
1577.00,96.66
1576.00,96.81
1575.00,96.94
1574.00,97.03
1573.00,97.10
1572.00,97.17
1571.00,97.27
1570.00,97.39
1569.00,97.50
1568.00,97.58
1567.00,97.65
1566.00,97.73
1565.00,97.80
1564.00,97.85
1563.00,97.86
1562.00,97.86
1561.00,97.88
1560.00,97.98
1559.00,98.15
1558.00,98.27
1557.00,98.31
1556.00,98.36
1555.00,98.42
1554.00,98.48
1553.00,98.52
1552.00,98.55
1551.00,98.60
1550.00,98.66
1549.00,98.71
1548.00,98.74
1547.00,98.75
1546.00,98.76
1545.00,98.76
1544.00,98.76
1543.00,98.78
1542.00,98.82
1541.00,98.90
1540.00,98.98
1539.00,99.04
1538.00,99.05
1537.00,99.04
1536.00,99.03
1535.00,99.04
1534.00,99.07
1533.00,99.10
1532.00,99.11
1531.00,99.12
1530.00,99.12
1529.00,99.11
1528.00,99.10
1527.00,99.10
1526.00,99.11
1525.00,99.11
1524.00,99.10
1523.00,99.10
1522.00,99.11
1521.00,99.11
1520.00,99.09
1519.00,99.09
1518.00,99.11
1517.00,99.11
1516.00,99.11
1515.00,99.11
1514.00,99.11
1513.00,99.09
1512.00,99.05
1511.00,98.99
1510.00,98.93
1509.00,98.88
1508.00,98.85
1507.00,98.87
1506.00,98.89
1505.00,98.86
1504.00,98.82
1503.00,98.78
1502.00,98.73
1501.00,98.66
1500.00,98.57
1499.00,98.49
1498.00,98.41
1497.00,98.30
1496.00,98.17
1495.00,98.05
1494.00,97.94
1493.00,97.80
1492.00,97.63
1491.00,97.46
1490.00,97.27
1489.00,97.06
1488.00,96.87
1487.00,96.69
1486.00,96.51
1485.00,96.30
1484.00,96.07
1483.00,95.83
1482.00,95.57
1481.00,95.27
1480.00,94.97
1479.00,94.67
1478.00,94.35
1477.00,93.97
1476.00,93.58
1475.00,93.20
1474.00,92.81
1473.00,92.34
1472.00,91.85
1471.00,91.42
1470.00,91.05
1469.00,90.69
1468.00,90.31
1467.00,89.91
1466.00,89.47
1465.00,88.99
1464.00,88.52
1463.00,88.12
1462.00,87.78
1461.00,87.45
1460.00,87.13
1459.00,86.81
1458.00,86.48
1457.00,86.12
1456.00,85.84
1455.00,85.68
1454.00,85.59
1453.00,85.50
1452.00,85.42
1451.00,85.36
1450.00,85.31
1449.00,85.24
1448.00,85.18
1447.00,85.13
1446.00,85.08
1445.00,85.02
1444.00,84.95
1443.00,84.87
1442.00,84.77
1441.00,84.65
1440.00,84.52
1439.00,84.40
1438.00,84.26
1437.00,84.08
1436.00,83.90
1435.00,83.77
1434.00,83.66
1433.00,83.54
1432.00,83.41
1431.00,83.29
1430.00,83.16
1429.00,83.02
1428.00,82.91
1427.00,82.81
1426.00,82.72
1425.00,82.61
1424.00,82.50
1423.00,82.42
1422.00,82.35
1421.00,82.28
1420.00,82.19
1419.00,82.13
1418.00,82.09
1417.00,82.08
1416.00,82.09
1415.00,82.13
1414.00,82.16
1413.00,82.18
1412.00,82.22
1411.00,82.29
1410.00,82.37
1409.00,82.44
1408.00,82.53
1407.00,82.65
1406.00,82.78
1405.00,82.94
1404.00,83.12
1403.00,83.31
1402.00,83.50
1401.00,83.69
1400.00,83.89
1399.00,84.12
1398.00,84.34
1397.00,84.54
1396.00,84.74
1395.00,84.97
1394.00,85.20
1393.00,85.39
1392.00,85.55
1391.00,85.69
1390.00,85.80
1389.00,85.90
1388.00,85.99
1387.00,86.07
1386.00,86.13
1385.00,86.16
1384.00,86.17
1383.00,86.16
1382.00,86.12
1381.00,86.05
1380.00,85.97
1379.00,85.88
1378.00,85.78
1377.00,85.67
1376.00,85.56
1375.00,85.44
1374.00,85.34
1373.00,85.24
1372.00,85.17
1371.00,85.11
1370.00,85.05
1369.00,84.98
1368.00,84.91
1367.00,84.84
1366.00,84.78
1365.00,84.71
1364.00,84.64
1363.00,84.60
1362.00,84.56
1361.00,84.54
1360.00,84.52
1359.00,84.51
1358.00,84.49
1357.00,84.45
1356.00,84.41
1355.00,84.38
1354.00,84.34
1353.00,84.30
1352.00,84.24
1351.00,84.18
1350.00,84.12
1349.00,84.05
1348.00,83.99
1347.00,83.94
1346.00,83.91
1345.00,83.89
1344.00,83.88
1343.00,83.90
1342.00,83.93
1341.00,83.99
1340.00,84.09
1339.00,84.24
1338.00,84.43
1337.00,84.63
1336.00,84.84
1335.00,85.08
1334.00,85.32
1333.00,85.57
1332.00,85.83
1331.00,86.08
1330.00,86.33
1329.00,86.58
1328.00,86.82
1327.00,87.07
1326.00,87.31
1325.00,87.53
1324.00,87.75
1323.00,87.96
1322.00,88.17
1321.00,88.35
1320.00,88.54
1319.00,88.73
1318.00,88.91
1317.00,89.10
1316.00,89.28
1315.00,89.47
1314.00,89.66
1313.00,89.85
1312.00,90.05
1311.00,90.25
1310.00,90.45
1309.00,90.65
1308.00,90.85
1307.00,91.05
1306.00,91.25
1305.00,91.43
1304.00,91.61
1303.00,91.79
1302.00,91.95
1301.00,92.11
1300.00,92.27
1299.00,92.41
1298.00,92.55
1297.00,92.67
1296.00,92.78
1295.00,92.87
1294.00,92.95
1293.00,93.02
1292.00,93.07
1291.00,93.11
1290.00,93.14
1289.00,93.16
1288.00,93.17
1287.00,93.18
1286.00,93.18
1285.00,93.17
1284.00,93.15
1283.00,93.14
1282.00,93.11
1281.00,93.08
1280.00,93.04
1279.00,92.99
1278.00,92.93
1277.00,92.86
1276.00,92.78
1275.00,92.69
1274.00,92.57
1273.00,92.44
1272.00,92.29
1271.00,92.14
1270.00,91.97
1269.00,91.80
1268.00,91.63
1267.00,91.45
1266.00,91.28
1265.00,91.12
1264.00,90.97
1263.00,90.84
1262.00,90.74
1261.00,90.67
1260.00,90.62
1259.00,90.60
1258.00,90.59
1257.00,90.60
1256.00,90.63
1255.00,90.67
1254.00,90.72
1253.00,90.77
1252.00,90.81
1251.00,90.87
1250.00,90.93
1249.00,91.00
1248.00,91.07
1247.00,91.14
1246.00,91.22
1245.00,91.30
1244.00,91.38
1243.00,91.48
1242.00,91.57
1241.00,91.67
1240.00,91.76
1239.00,91.87
1238.00,91.99
1237.00,92.11
1236.00,92.23
1235.00,92.37
1234.00,92.53
1233.00,92.69
1232.00,92.86
1231.00,93.06
1230.00,93.27
1229.00,93.49
1228.00,93.74
1227.00,94.00
1226.00,94.28
1225.00,94.57
1224.00,94.88
1223.00,95.20
1222.00,95.53
1221.00,95.85
1220.00,96.18
1219.00,96.51
1218.00,96.81
1217.00,97.10
1216.00,97.38
1215.00,97.63
1214.00,97.86
1213.00,98.06
1212.00,98.22
1211.00,98.36
1210.00,98.47
1209.00,98.56
1208.00,98.62
1207.00,98.67
1206.00,98.70
1205.00,98.70
1204.00,98.68
1203.00,98.66
1202.00,98.63
1201.00,98.59
1200.00,98.55
1199.00,98.52
1198.00,98.49
1197.00,98.47
1196.00,98.45
1195.00,98.44
1194.00,98.43
1193.00,98.42
1192.00,98.41
1191.00,98.41
1190.00,98.42
1189.00,98.44
1188.00,98.46
1187.00,98.51
1186.00,98.56
1185.00,98.62
1184.00,98.69
1183.00,98.77
1182.00,98.87
1181.00,98.96
1180.00,99.06
1179.00,99.14
1178.00,99.21
1177.00,99.25
1176.00,99.25
1175.00,99.21
1174.00,99.10
1173.00,98.92
1172.00,98.66
1171.00,98.32
1170.00,97.88
1169.00,97.33
1168.00,96.69
1167.00,95.95
1166.00,95.12
1165.00,94.20
1164.00,93.22
1163.00,92.18
1162.00,91.11
1161.00,90.00
1160.00,88.88
1159.00,87.78
1158.00,86.71
1157.00,85.69
1156.00,84.72
1155.00,83.84
1154.00,83.04
1153.00,82.34
1152.00,81.74
1151.00,81.27
1150.00,80.91
1149.00,80.67
1148.00,80.55
1147.00,80.54
1146.00,80.65
1145.00,80.84
1144.00,81.10
1143.00,81.41
1142.00,81.77
1141.00,82.12
1140.00,82.46
1139.00,82.79
1138.00,83.08
1137.00,83.33
1136.00,83.52
1135.00,83.67
1134.00,83.79
1133.00,83.85
1132.00,83.87
1131.00,83.88
1130.00,83.86
1129.00,83.81
1128.00,83.73
1127.00,83.63
1126.00,83.49
1125.00,83.30
1124.00,83.06
1123.00,82.79
1122.00,82.48
1121.00,82.11
1120.00,81.67
1119.00,81.18
1118.00,80.61
1117.00,79.96
1116.00,79.22
1115.00,78.42
1114.00,77.57
1113.00,76.64
1112.00,75.66
1111.00,74.67
1110.00,73.70
1109.00,72.73
1108.00,71.81
1107.00,70.96
1106.00,70.22
1105.00,69.58
1104.00,69.06
1103.00,68.68
1102.00,68.45
1101.00,68.33
1100.00,68.31
1099.00,68.39
1098.00,68.53
1097.00,68.67
1096.00,68.76
1095.00,68.78
1094.00,68.69
1093.00,68.41
1092.00,67.95
1091.00,67.32
1090.00,66.53
1089.00,65.59
1088.00,64.51
1087.00,63.35
1086.00,62.16
1085.00,60.93
1084.00,59.69
1083.00,58.50
1082.00,57.39
1081.00,56.34
1080.00,55.38
1079.00,54.55
1078.00,53.86
1077.00,53.28
1076.00,52.79
1075.00,52.41
1074.00,52.09
1073.00,51.78
1072.00,51.45
1071.00,51.10
1070.00,50.73
1069.00,50.29
1068.00,49.77
1067.00,49.22
1066.00,48.62
1065.00,47.95
1064.00,47.22
1063.00,46.49
1062.00,45.77
1061.00,45.02
1060.00,44.27
1059.00,43.53
1058.00,42.84
1057.00,42.15
1056.00,41.49
1055.00,40.89
1054.00,40.37
1053.00,39.90
1052.00,39.50
1051.00,39.22
1050.00,39.07
1049.00,38.98
1048.00,38.90
1047.00,38.87
1046.00,38.87
1045.00,38.83
1044.00,38.75
1043.00,38.64
1042.00,38.49
1041.00,38.26
1040.00,37.94
1039.00,37.57
1038.00,37.16
1037.00,36.68
1036.00,36.14
1035.00,35.60
1034.00,35.06
1033.00,34.49
1032.00,33.89
1031.00,33.34
1030.00,32.85
1029.00,32.39
1028.00,31.96
1027.00,31.63
1026.00,31.40
1025.00,31.24
1024.00,31.14
1023.00,31.13
1022.00,31.20
1021.00,31.31
1020.00,31.45
1019.00,31.65
1018.00,31.88
1017.00,32.11
1016.00,32.31
1015.00,32.55
1014.00,32.83
1013.00,33.14
1012.00,33.50
1011.00,33.96
1010.00,34.53
1009.00,35.19
1008.00,35.97
1007.00,36.89
1006.00,37.96
1005.00,39.13
1004.00,40.38
1003.00,41.71
1002.00,43.07
1001.00,44.40
1000.00,45.63
999.00,46.77
998.00,47.78
997.00,48.64
996.00,49.34
995.00,49.93
994.00,50.44
993.00,50.89
992.00,51.31
991.00,51.77
990.00,52.30
989.00,52.89
988.00,53.54
987.00,54.25
986.00,55.00
985.00,55.74
984.00,56.45
983.00,57.13
982.00,57.80
981.00,58.46
980.00,59.16
979.00,59.99
978.00,60.99
977.00,62.17
976.00,63.52
975.00,65.02
974.00,66.61
973.00,68.17
972.00,69.61
971.00,70.87
970.00,71.91
969.00,72.71
968.00,73.32
967.00,73.85
966.00,74.39
965.00,75.04
964.00,75.91
963.00,77.08
962.00,78.56
961.00,80.30
960.00,82.23
959.00,84.25
958.00,86.27
957.00,88.17
956.00,89.91
955.00,91.46
954.00,92.79
953.00,93.90
952.00,94.80
951.00,95.54
950.00,96.13
949.00,96.59
948.00,96.95
947.00,97.21
946.00,97.40
945.00,97.51
944.00,97.55
943.00,97.55
942.00,97.50
941.00,97.41
940.00,97.29
939.00,97.16
938.00,97.03
937.00,96.88
936.00,96.70
935.00,96.51
934.00,96.29
933.00,96.04
932.00,95.75
931.00,95.44
930.00,95.09
929.00,94.69
928.00,94.24
927.00,93.76
926.00,93.27
925.00,92.77
924.00,92.28
923.00,91.85
922.00,91.49
921.00,91.20
920.00,90.99
919.00,90.91
918.00,90.95
917.00,91.11
916.00,91.39
915.00,91.78
914.00,92.28
913.00,92.84
912.00,93.42
911.00,94.00
910.00,94.55
909.00,95.02
908.00,95.40
907.00,95.70
906.00,95.92
905.00,96.06
904.00,96.13
903.00,96.16
902.00,96.16
901.00,96.14
900.00,96.11
899.00,96.10
898.00,96.14
897.00,96.22
896.00,96.35
895.00,96.53
894.00,96.77
893.00,97.03
892.00,97.33
891.00,97.66
890.00,98.01
889.00,98.35
888.00,98.69
887.00,99.01
886.00,99.28
885.00,99.46
884.00,99.56
883.00,99.56
882.00,99.48
881.00,99.28
880.00,98.96
879.00,98.54
878.00,98.03
877.00,97.43
876.00,96.75
875.00,96.04
874.00,95.31
873.00,94.57
872.00,93.84
871.00,93.18
870.00,92.61
869.00,92.14
868.00,91.79
867.00,91.59
866.00,91.52
865.00,91.57
864.00,91.73
863.00,92.02
862.00,92.41
861.00,92.89
860.00,93.44
859.00,94.07
858.00,94.75
857.00,95.42
856.00,96.06
855.00,96.65
854.00,97.18
853.00,97.63
852.00,98.01
851.00,98.34
850.00,98.62
849.00,98.85
848.00,99.00
847.00,99.11
846.00,99.19
845.00,99.23
844.00,99.23
843.00,99.23
842.00,99.23
841.00,99.22
840.00,99.18
839.00,99.12
838.00,99.05
837.00,98.95
836.00,98.81
835.00,98.64
834.00,98.42
833.00,98.12
832.00,97.72
831.00,97.23
830.00,96.65
829.00,95.97
828.00,95.18
827.00,94.29
826.00,93.31
825.00,92.23
824.00,91.11
823.00,90.04
822.00,89.06
821.00,88.21
820.00,87.53
819.00,87.10
818.00,86.94
817.00,87.02
816.00,87.34
815.00,87.91
814.00,88.72
813.00,89.69
812.00,90.77
811.00,91.91
810.00,93.05
809.00,94.13
808.00,95.11
807.00,96.02
806.00,96.84
805.00,97.53
804.00,98.08
803.00,98.53
802.00,98.91
801.00,99.19
800.00,99.38
799.00,99.49
798.00,99.54
797.00,99.52
796.00,99.40
795.00,99.20
794.00,98.91
793.00,98.47
792.00,97.85
791.00,97.10
790.00,96.22
789.00,95.20
788.00,94.04
787.00,92.79
786.00,91.51
785.00,90.21
784.00,88.94
783.00,87.78
782.00,86.77
781.00,85.92
780.00,85.24
779.00,84.80
778.00,84.59
777.00,84.57
776.00,84.69
775.00,84.99
774.00,85.45
773.00,85.99
772.00,86.60
771.00,87.28
770.00,88.05
769.00,88.86
768.00,89.65
767.00,90.43
766.00,91.20
765.00,91.94
764.00,92.64
763.00,93.32
762.00,93.97
761.00,94.54
760.00,95.01
759.00,95.44
758.00,95.84
757.00,96.19
756.00,96.50
755.00,96.79
754.00,97.08
753.00,97.32
752.00,97.51
751.00,97.69
750.00,97.89
749.00,98.06
748.00,98.22
747.00,98.38
746.00,98.54
745.00,98.67
744.00,98.75
743.00,98.81
742.00,98.89
741.00,98.96
740.00,99.00
739.00,99.06
738.00,99.13
737.00,99.16
736.00,99.14
735.00,99.12
734.00,99.12
733.00,99.11
732.00,99.10
731.00,99.11
730.00,99.17
729.00,99.20
728.00,99.20
727.00,99.17
726.00,99.13
725.00,99.03
724.00,98.89
723.00,98.78
722.00,98.70
721.00,98.55
720.00,98.31
719.00,98.06
718.00,97.82
717.00,97.57
716.00,97.27
715.00,96.97
714.00,96.70
713.00,96.41
712.00,96.08
711.00,95.76
710.00,95.51
709.00,95.27
708.00,95.04
707.00,94.85
706.00,94.73
705.00,94.62
704.00,94.54
703.00,94.51
702.00,94.57
701.00,94.64
700.00,94.71
699.00,94.85
698.00,95.07
697.00,95.27
696.00,95.42
695.00,95.56
694.00,95.75
693.00,95.95
692.00,96.13
691.00,96.35
690.00,96.59
689.00,96.76
688.00,96.85
687.00,96.95
686.00,97.09
685.00,97.21
684.00,97.27
683.00,97.39
682.00,97.58
681.00,97.73
680.00,97.78
679.00,97.81
678.00,97.88
677.00,97.93
676.00,97.95
675.00,98.00
674.00,98.10
673.00,98.16
672.00,98.18
671.00,98.28
670.00,98.48
669.00,98.60
668.00,98.50
667.00,98.43
666.00,98.56
665.00,98.70
664.00,98.76
663.00,98.81
662.00,98.93
661.00,99.03
660.00,99.04
659.00,99.08
658.00,99.17
657.00,99.20
656.00,99.11
655.00,99.05
654.00,99.07
653.00,99.03
652.00,98.85
651.00,98.71
650.00,98.65
