Created as New Dataset,Sample 002 By iruser Date Tuesday, March 24 2026
cm-1,%T
4200.00,100.04
4199.00,100.04
4198.00,100.04
4197.00,100.04
4196.00,100.04
4195.00,100.04
4194.00,100.05
4193.00,100.05
4192.00,100.05
4191.00,100.05
4190.00,100.04
4189.00,100.04
4188.00,100.03
4187.00,100.03
4186.00,100.03
4185.00,100.04
4184.00,100.04
4183.00,100.04
4182.00,100.04
4181.00,100.04
4180.00,100.04
4179.00,100.04
4178.00,100.03
4177.00,100.03
4176.00,100.03
4175.00,100.03
4174.00,100.03
4173.00,100.03
4172.00,100.03
4171.00,100.02
4170.00,100.02
4169.00,100.02
4168.00,100.03
4167.00,100.03
4166.00,100.03
4165.00,100.03
4164.00,100.02
4163.00,100.02
4162.00,100.01
4161.00,100.01
4160.00,100.01
4159.00,100.02
4158.00,100.02
4157.00,100.01
4156.00,100.01
4155.00,100.01
4154.00,100.01
4153.00,100.01
4152.00,100.01
4151.00,100.01
4150.00,100.00
4149.00,100.00
4148.00,99.99
4147.00,100.00
4146.00,100.01
4145.00,100.01
4144.00,100.01
4143.00,100.00
4142.00,99.99
4141.00,99.99
4140.00,99.99
4139.00,99.99
4138.00,99.99
4137.00,99.99
4136.00,99.98
4135.00,99.98
4134.00,99.98
4133.00,99.99
4132.00,99.99
4131.00,100.00
4130.00,99.99
4129.00,99.99
4128.00,99.99
4127.00,99.98
4126.00,99.98
4125.00,99.97
4124.00,99.97
4123.00,99.97
4122.00,99.96
4121.00,99.96
4120.00,99.96
4119.00,99.96
4118.00,99.96
4117.00,99.96
4116.00,99.96
4115.00,99.96
4114.00,99.96
4113.00,99.96
4112.00,99.96
4111.00,99.96
4110.00,99.96
4109.00,99.95
4108.00,99.95
4107.00,99.95
4106.00,99.94
4105.00,99.94
4104.00,99.94
4103.00,99.95
4102.00,99.95
4101.00,99.95
4100.00,99.95
4099.00,99.94
4098.00,99.94
4097.00,99.94
4096.00,99.94
4095.00,99.94
4094.00,99.94
4093.00,99.93
4092.00,99.93
4091.00,99.92
4090.00,99.92
4089.00,99.92
4088.00,99.92
4087.00,99.92
4086.00,99.92
4085.00,99.92
4084.00,99.92
4083.00,99.91
4082.00,99.91
4081.00,99.90
4080.00,99.90
4079.00,99.89
4078.00,99.89
4077.00,99.89
4076.00,99.89
4075.00,99.88
4074.00,99.88
4073.00,99.88
4072.00,99.87
4071.00,99.87
4070.00,99.87
4069.00,99.87
4068.00,99.86
4067.00,99.86
4066.00,99.86
4065.00,99.86
4064.00,99.85
4063.00,99.85
4062.00,99.85
4061.00,99.85
4060.00,99.85
4059.00,99.85
4058.00,99.85
4057.00,99.84
4056.00,99.84
4055.00,99.84
4054.00,99.84
4053.00,99.84
4052.00,99.84
4051.00,99.83
4050.00,99.83
4049.00,99.83
4048.00,99.83
4047.00,99.83
4046.00,99.83
4045.00,99.83
4044.00,99.82
4043.00,99.82
4042.00,99.82
4041.00,99.82
4040.00,99.82
4039.00,99.82
4038.00,99.82
4037.00,99.82
4036.00,99.82
4035.00,99.82
4034.00,99.81
4033.00,99.81
4032.00,99.80
4031.00,99.79
4030.00,99.79
4029.00,99.78
4028.00,99.78
4027.00,99.78
4026.00,99.78
4025.00,99.78
4024.00,99.78
4023.00,99.78
4022.00,99.79
4021.00,99.79
4020.00,99.79
4019.00,99.79
4018.00,99.79
4017.00,99.79
4016.00,99.78
4015.00,99.78
4014.00,99.78
4013.00,99.78
4012.00,99.78
4011.00,99.78
4010.00,99.78
4009.00,99.78
4008.00,99.78
4007.00,99.78
4006.00,99.78
4005.00,99.78
4004.00,99.79
4003.00,99.79
4002.00,99.79
4001.00,99.79
4000.00,99.78
3999.00,99.78
3998.00,99.78
3997.00,99.78
3996.00,99.79
3995.00,99.79
3994.00,99.79
3993.00,99.79
3992.00,99.79
3991.00,99.79
3990.00,99.80
3989.00,99.80
3988.00,99.80
3987.00,99.80
3986.00,99.80
3985.00,99.80
3984.00,99.80
3983.00,99.80
3982.00,99.80
3981.00,99.81
3980.00,99.81
3979.00,99.81
3978.00,99.81
3977.00,99.82
3976.00,99.82
3975.00,99.82
3974.00,99.82
3973.00,99.83
3972.00,99.82
3971.00,99.82
3970.00,99.82
3969.00,99.82
3968.00,99.83
3967.00,99.83
3966.00,99.83
3965.00,99.83
3964.00,99.83
3963.00,99.83
3962.00,99.83
3961.00,99.83
3960.00,99.83
3959.00,99.84
3958.00,99.84
3957.00,99.85
3956.00,99.85
3955.00,99.85
3954.00,99.85
3953.00,99.85
3952.00,99.85
3951.00,99.86
3950.00,99.86
3949.00,99.87
3948.00,99.87
3947.00,99.86
3946.00,99.86
3945.00,99.86
3944.00,99.86
3943.00,99.87
3942.00,99.88
3941.00,99.88
3940.00,99.88
3939.00,99.88
3938.00,99.88
3937.00,99.87
3936.00,99.86
3935.00,99.86
3934.00,99.86
3933.00,99.87
3932.00,99.88
3931.00,99.89
3930.00,99.90
3929.00,99.90
3928.00,99.90
3927.00,99.89
3926.00,99.88
3925.00,99.88
3924.00,99.89
3923.00,99.90
3922.00,99.90
3921.00,99.91
3920.00,99.91
3919.00,99.91
3918.00,99.92
3917.00,99.91
3916.00,99.91
3915.00,99.91
3914.00,99.91
3913.00,99.91
3912.00,99.91
3911.00,99.92
3910.00,99.92
3909.00,99.92
3908.00,99.92
3907.00,99.91
3906.00,99.91
3905.00,99.91
3904.00,99.92
3903.00,99.92
3902.00,99.92
3901.00,99.93
3900.00,99.94
3899.00,99.94
3898.00,99.95
3897.00,99.95
3896.00,99.94
3895.00,99.94
3894.00,99.95
3893.00,99.96
3892.00,99.97
3891.00,99.97
3890.00,99.96
3889.00,99.95
3888.00,99.95
3887.00,99.94
3886.00,99.94
3885.00,99.94
3884.00,99.94
3883.00,99.94
3882.00,99.95
3881.00,99.97
3880.00,99.97
3879.00,99.97
3878.00,99.97
3877.00,99.97
3876.00,99.97
3875.00,99.98
3874.00,99.98
3873.00,99.98
3872.00,99.97
3871.00,99.97
3870.00,99.97
3869.00,99.97
3868.00,99.96
3867.00,99.96
3866.00,99.96
3865.00,99.97
3864.00,99.98
3863.00,99.99
3862.00,99.99
3861.00,99.99
3860.00,99.98
3859.00,99.97
3858.00,99.96
3857.00,99.95
3856.00,99.95
3855.00,99.95
3854.00,99.95
3853.00,99.96
3852.00,99.96
3851.00,99.96
3850.00,99.97
3849.00,99.99
3848.00,99.99
3847.00,99.99
3846.00,99.99
3845.00,99.99
3844.00,99.99
3843.00,99.99
3842.00,99.98
3841.00,99.98
3840.00,99.99
3839.00,99.99
3838.00,100.00
3837.00,100.00
3836.00,99.99
3835.00,100.00
3834.00,100.01
3833.00,100.02
3832.00,100.03
3831.00,100.04
3830.00,100.04
3829.00,100.03
3828.00,100.03
3827.00,100.03
3826.00,100.03
3825.00,100.02
3824.00,100.01
3823.00,100.00
3822.00,100.00
3821.00,100.00
3820.00,100.01
3819.00,100.00
3818.00,100.00
3817.00,100.00
3816.00,100.00
3815.00,100.00
3814.00,100.00
3813.00,100.01
3812.00,100.01
3811.00,100.01
3810.00,100.01
3809.00,100.02
3808.00,100.02
3807.00,100.01
3806.00,100.00
3805.00,99.99
3804.00,99.98
3803.00,99.97
3802.00,99.98
3801.00,99.99
3800.00,99.99
3799.00,100.00
3798.00,100.01
3797.00,100.02
3796.00,100.03
3795.00,100.03
3794.00,100.03
3793.00,100.03
3792.00,100.03
3791.00,100.03
3790.00,100.02
3789.00,100.01
3788.00,100.00
3787.00,100.00
3786.00,100.00
3785.00,100.00
3784.00,100.00
3783.00,100.00
3782.00,100.00
3781.00,100.00
3780.00,100.01
3779.00,100.02
3778.00,100.02
3777.00,100.01
3776.00,100.01
3775.00,100.01
3774.00,100.00
3773.00,100.00
3772.00,100.00
3771.00,100.00
3770.00,100.00
3769.00,99.99
3768.00,99.99
3767.00,99.99
3766.00,100.00
3765.00,100.00
3764.00,99.99
3763.00,99.99
3762.00,99.98
3761.00,99.98
3760.00,99.98
3759.00,99.99
3758.00,99.98
3757.00,99.98
3756.00,99.97
3755.00,99.96
3754.00,99.94
3753.00,99.93
3752.00,99.91
3751.00,99.90
3750.00,99.89
3749.00,99.88
3748.00,99.89
3747.00,99.89
3746.00,99.90
3745.00,99.91
3744.00,99.91
3743.00,99.91
3742.00,99.91
3741.00,99.91
3740.00,99.90
3739.00,99.88
3738.00,99.86
3737.00,99.85
3736.00,99.86
3735.00,99.88
3734.00,99.90
3733.00,99.91
3732.00,99.90
3731.00,99.88
3730.00,99.87
3729.00,99.86
3728.00,99.86
3727.00,99.85
3726.00,99.85
3725.00,99.84
3724.00,99.83
3723.00,99.83
3722.00,99.82
3721.00,99.83
3720.00,99.83
3719.00,99.84
3718.00,99.84
3717.00,99.83
3716.00,99.81
3715.00,99.79
3714.00,99.77
3713.00,99.75
3712.00,99.74
3711.00,99.74
3710.00,99.74
3709.00,99.74
3708.00,99.74
3707.00,99.73
3706.00,99.73
3705.00,99.72
3704.00,99.72
3703.00,99.71
3702.00,99.71
3701.00,99.70
3700.00,99.69
3699.00,99.66
3698.00,99.64
3697.00,99.62
3696.00,99.59
3695.00,99.58
3694.00,99.56
3693.00,99.54
3692.00,99.53
3691.00,99.52
3690.00,99.51
3689.00,99.48
3688.00,99.45
3687.00,99.42
3686.00,99.40
3685.00,99.37
3684.00,99.35
3683.00,99.32
3682.00,99.28
3681.00,99.26
3680.00,99.23
3679.00,99.19
3678.00,99.15
3677.00,99.11
3676.00,99.07
3675.00,99.03
3674.00,98.98
3673.00,98.94
3672.00,98.89
3671.00,98.84
3670.00,98.80
3669.00,98.76
3668.00,98.71
3667.00,98.67
3666.00,98.63
3665.00,98.58
3664.00,98.53
3663.00,98.46
3662.00,98.40
3661.00,98.33
3660.00,98.26
3659.00,98.19
3658.00,98.12
3657.00,98.05
3656.00,97.98
3655.00,97.91
3654.00,97.84
3653.00,97.78
3652.00,97.70
3651.00,97.62
3650.00,97.53
3649.00,97.43
3648.00,97.34
3647.00,97.25
3646.00,97.17
3645.00,97.09
3644.00,97.01
3643.00,96.93
3642.00,96.85
3641.00,96.77
3640.00,96.67
3639.00,96.57
3638.00,96.47
3637.00,96.36
3636.00,96.26
3635.00,96.16
3634.00,96.07
3633.00,95.97
3632.00,95.87
3631.00,95.75
3630.00,95.62
3629.00,95.48
3628.00,95.35
3627.00,95.25
3626.00,95.15
3625.00,95.07
3624.00,94.99
3623.00,94.90
3622.00,94.81
3621.00,94.71
3620.00,94.58
3619.00,94.44
3618.00,94.30
3617.00,94.17
3616.00,94.04
3615.00,93.91
3614.00,93.79
3613.00,93.67
3612.00,93.54
3611.00,93.41
3610.00,93.27
3609.00,93.13
3608.00,93.00
3607.00,92.87
3606.00,92.75
3605.00,92.63
3604.00,92.50
3603.00,92.36
3602.00,92.22
3601.00,92.08
3600.00,91.94
3599.00,91.81
3598.00,91.67
3597.00,91.52
3596.00,91.36
3595.00,91.20
3594.00,91.05
3593.00,90.90
3592.00,90.76
3591.00,90.62
3590.00,90.47
3589.00,90.30
3588.00,90.12
3587.00,89.95
3586.00,89.79
3585.00,89.62
3584.00,89.47
3583.00,89.31
3582.00,89.16
3581.00,89.01
3580.00,88.85
3579.00,88.69
3578.00,88.52
3577.00,88.34
3576.00,88.17
3575.00,87.99
3574.00,87.82
3573.00,87.65
3572.00,87.48
3571.00,87.31
3570.00,87.13
3569.00,86.95
3568.00,86.75
3567.00,86.56
3566.00,86.37
3565.00,86.19
3564.00,86.01
3563.00,85.84
3562.00,85.67
3561.00,85.49
3560.00,85.31
3559.00,85.14
3558.00,84.96
3557.00,84.78
3556.00,84.60
3555.00,84.41
3554.00,84.22
3553.00,84.02
3552.00,83.83
3551.00,83.65
3550.00,83.47
3549.00,83.28
3548.00,83.08
3547.00,82.88
3546.00,82.67
3545.00,82.47
3544.00,82.29
3543.00,82.11
3542.00,81.93
3541.00,81.76
3540.00,81.58
3539.00,81.39
3538.00,81.20
3537.00,81.01
3536.00,80.81
3535.00,80.61
3534.00,80.43
3533.00,80.24
3532.00,80.05
3531.00,79.86
3530.00,79.67
3529.00,79.47
3528.00,79.27
3527.00,79.08
3526.00,78.88
3525.00,78.68
3524.00,78.48
3523.00,78.29
3522.00,78.10
3521.00,77.91
3520.00,77.72
3519.00,77.53
3518.00,77.35
3517.00,77.16
3516.00,76.97
3515.00,76.78
3514.00,76.60
3513.00,76.41
3512.00,76.23
3511.00,76.04
3510.00,75.84
3509.00,75.64
3508.00,75.45
3507.00,75.26
3506.00,75.08
3505.00,74.89
3504.00,74.69
3503.00,74.50
3502.00,74.31
3501.00,74.12
3500.00,73.94
3499.00,73.76
3498.00,73.58
3497.00,73.39
3496.00,73.20
3495.00,73.02
3494.00,72.84
3493.00,72.66
3492.00,72.48
3491.00,72.30
3490.00,72.12
3489.00,71.93
3488.00,71.74
3487.00,71.55
3486.00,71.38
3485.00,71.20
3484.00,71.02
3483.00,70.84
3482.00,70.65
3481.00,70.46
3480.00,70.28
3479.00,70.10
3478.00,69.93
3477.00,69.75
3476.00,69.58
3475.00,69.41
3474.00,69.23
3473.00,69.05
3472.00,68.87
3471.00,68.68
3470.00,68.51
3469.00,68.33
3468.00,68.16
3467.00,67.99
3466.00,67.82
3465.00,67.65
3464.00,67.49
3463.00,67.32
3462.00,67.14
3461.00,66.97
3460.00,66.79
3459.00,66.63
3458.00,66.46
3457.00,66.29
3456.00,66.13
3455.00,65.96
3454.00,65.79
3453.00,65.62
3452.00,65.46
3451.00,65.29
3450.00,65.13
3449.00,64.97
3448.00,64.80
3447.00,64.64
3446.00,64.47
3445.00,64.31
3444.00,64.15
3443.00,64.00
3442.00,63.84
3441.00,63.68
3440.00,63.51
3439.00,63.35
3438.00,63.19
3437.00,63.03
3436.00,62.87
3435.00,62.72
3434.00,62.57
3433.00,62.42
3432.00,62.27
3431.00,62.12
3430.00,61.97
3429.00,61.83
3428.00,61.68
3427.00,61.54
3426.00,61.40
3425.00,61.26
3424.00,61.12
3423.00,60.97
3422.00,60.82
3421.00,60.67
3420.00,60.53
3419.00,60.39
3418.00,60.25
3417.00,60.11
3416.00,59.97
3415.00,59.82
3414.00,59.67
3413.00,59.53
3412.00,59.40
3411.00,59.27
3410.00,59.14
3409.00,59.01
3408.00,58.89
3407.00,58.76
3406.00,58.64
3405.00,58.51
3404.00,58.37
3403.00,58.23
3402.00,58.10
3401.00,57.97
3400.00,57.85
3399.00,57.73
3398.00,57.62
3397.00,57.50
3396.00,57.38
3395.00,57.26
3394.00,57.14
3393.00,57.02
3392.00,56.91
3391.00,56.80
3390.00,56.70
3389.00,56.60
3388.00,56.50
3387.00,56.40
3386.00,56.29
3385.00,56.18
3384.00,56.07
3383.00,55.96
3382.00,55.86
3381.00,55.75
3380.00,55.65
3379.00,55.55
3378.00,55.46
3377.00,55.37
3376.00,55.28
3375.00,55.19
3374.00,55.10
3373.00,55.00
3372.00,54.90
3371.00,54.81
3370.00,54.72
3369.00,54.63
3368.00,54.55
3367.00,54.47
3366.00,54.39
3365.00,54.31
3364.00,54.24
3363.00,54.17
3362.00,54.10
3361.00,54.02
3360.00,53.95
3359.00,53.87
3358.00,53.80
3357.00,53.74
3356.00,53.67
3355.00,53.60
3354.00,53.54
3353.00,53.47
3352.00,53.40
3351.00,53.33
3350.00,53.27
3349.00,53.22
3348.00,53.16
3347.00,53.11
3346.00,53.05
3345.00,52.98
3344.00,52.92
3343.00,52.86
3342.00,52.81
3341.00,52.75
3340.00,52.70
3339.00,52.65
3338.00,52.60
3337.00,52.55
3336.00,52.51
3335.00,52.47
3334.00,52.43
3333.00,52.40
3332.00,52.35
3331.00,52.31
3330.00,52.26
3329.00,52.21
3328.00,52.17
3327.00,52.12
3326.00,52.09
3325.00,52.05
3324.00,52.02
3323.00,51.99
3322.00,51.96
3321.00,51.93
3320.00,51.89
3319.00,51.86
3318.00,51.83
3317.00,51.80
3316.00,51.76
3315.00,51.74
3314.00,51.71
3313.00,51.67
3312.00,51.64
3311.00,51.61
3310.00,51.59
3309.00,51.56
3308.00,51.53
3307.00,51.51
3306.00,51.49
3305.00,51.48
3304.00,51.46
3303.00,51.44
3302.00,51.42
3301.00,51.40
3300.00,51.38
3299.00,51.36
3298.00,51.34
3297.00,51.32
3296.00,51.31
3295.00,51.29
3294.00,51.27
3293.00,51.25
3292.00,51.24
3291.00,51.23
3290.00,51.23
3289.00,51.22
3288.00,51.22
3287.00,51.22
3286.00,51.21
3285.00,51.20
3284.00,51.19
3283.00,51.18
3282.00,51.18
3281.00,51.18
3280.00,51.18
3279.00,51.18
3278.00,51.17
3277.00,51.16
3276.00,51.16
3275.00,51.16
3274.00,51.16
3273.00,51.16
3272.00,51.16
3271.00,51.17
3270.00,51.18
3269.00,51.19
3268.00,51.20
3267.00,51.21
3266.00,51.22
3265.00,51.23
3264.00,51.24
3263.00,51.26
3262.00,51.29
3261.00,51.31
3260.00,51.33
3259.00,51.34
3258.00,51.36
3257.00,51.38
3256.00,51.41
3255.00,51.44
3254.00,51.47
3253.00,51.49
3252.00,51.52
3251.00,51.54
3250.00,51.57
3249.00,51.60
3248.00,51.63
3247.00,51.67
3246.00,51.71
3245.00,51.76
3244.00,51.80
3243.00,51.84
3242.00,51.88
3241.00,51.93
3240.00,51.97
3239.00,52.02
3238.00,52.07
3237.00,52.12
3236.00,52.17
3235.00,52.23
3234.00,52.29
3233.00,52.35
3232.00,52.41
3231.00,52.47
3230.00,52.53
3229.00,52.60
3228.00,52.67
3227.00,52.74
3226.00,52.81
3225.00,52.88
3224.00,52.96
3223.00,53.03
3222.00,53.11
3221.00,53.19
3220.00,53.27
3219.00,53.35
3218.00,53.43
3217.00,53.51
3216.00,53.60
3215.00,53.70
3214.00,53.79
3213.00,53.88
3212.00,53.97
3211.00,54.06
3210.00,54.16
3209.00,54.26
3208.00,54.36
3207.00,54.47
3206.00,54.58
3205.00,54.68
3204.00,54.79
3203.00,54.90
3202.00,55.01
3201.00,55.12
3200.00,55.23
3199.00,55.34
3198.00,55.46
3197.00,55.58
3196.00,55.70
3195.00,55.82
3194.00,55.94
3193.00,56.07
3192.00,56.20
3191.00,56.33
3190.00,56.46
3189.00,56.59
3188.00,56.72
3187.00,56.86
3186.00,57.00
3185.00,57.14
3184.00,57.28
3183.00,57.41
3182.00,57.55
3181.00,57.68
3180.00,57.83
3179.00,57.98
3178.00,58.13
3177.00,58.28
3176.00,58.43
3175.00,58.58
3174.00,58.74
3173.00,58.89
3172.00,59.05
3171.00,59.20
3170.00,59.36
3169.00,59.52
3168.00,59.68
3167.00,59.84
3166.00,60.00
3165.00,60.16
3164.00,60.33
3163.00,60.49
3162.00,60.66
3161.00,60.82
3160.00,60.99
3159.00,61.15
3158.00,61.32
3157.00,61.49
3156.00,61.66
3155.00,61.83
3154.00,62.00
3153.00,62.17
3152.00,62.35
3151.00,62.53
3150.00,62.71
3149.00,62.89
3148.00,63.07
3147.00,63.26
3146.00,63.44
3145.00,63.62
3144.00,63.81
3143.00,63.99
3142.00,64.17
3141.00,64.35
3140.00,64.53
3139.00,64.72
3138.00,64.90
3137.00,65.09
3136.00,65.28
3135.00,65.46
3134.00,65.65
3133.00,65.83
3132.00,66.02
3131.00,66.21
3130.00,66.40
3129.00,66.59
3128.00,66.79
3127.00,66.98
3126.00,67.17
3125.00,67.36
3124.00,67.55
3123.00,67.73
3122.00,67.92
3121.00,68.11
3120.00,68.30
3119.00,68.49
3118.00,68.68
3117.00,68.87
3116.00,69.07
3115.00,69.26
3114.00,69.46
3113.00,69.66
3112.00,69.86
3111.00,70.05
3110.00,70.24
3109.00,70.43
3108.00,70.62
3107.00,70.81
3106.00,71.00
3105.00,71.20
3104.00,71.39
3103.00,71.58
3102.00,71.78
3101.00,71.97
3100.00,72.16
3099.00,72.35
3098.00,72.54
3097.00,72.73
3096.00,72.92
3095.00,73.11
3094.00,73.30
3093.00,73.49
3092.00,73.67
3091.00,73.86
3090.00,74.04
3089.00,74.23
3088.00,74.42
3087.00,74.61
3086.00,74.79
3085.00,74.98
3084.00,75.16
3083.00,75.35
3082.00,75.53
3081.00,75.71
3080.00,75.89
3079.00,76.08
3078.00,76.26
3077.00,76.45
3076.00,76.63
3075.00,76.82
3074.00,77.00
3073.00,77.17
3072.00,77.35
3071.00,77.52
3070.00,77.70
3069.00,77.87
3068.00,78.05
3067.00,78.23
3066.00,78.40
3065.00,78.58
3064.00,78.76
3063.00,78.93
3062.00,79.10
3061.00,79.27
3060.00,79.44
3059.00,79.61
3058.00,79.77
3057.00,79.94
3056.00,80.11
3055.00,80.27
3054.00,80.43
3053.00,80.59
3052.00,80.76
3051.00,80.93
3050.00,81.09
3049.00,81.26
3048.00,81.42
3047.00,81.57
3046.00,81.72
3045.00,81.87
3044.00,82.03
3043.00,82.19
3042.00,82.34
3041.00,82.49
3040.00,82.63
3039.00,82.77
3038.00,82.92
3037.00,83.06
3036.00,83.21
3035.00,83.35
3034.00,83.48
3033.00,83.62
3032.00,83.76
3031.00,83.90
3030.00,84.04
3029.00,84.17
3028.00,84.30
3027.00,84.42
3026.00,84.54
3025.00,84.66
3024.00,84.79
3023.00,84.91
3022.00,85.03
3021.00,85.15
3020.00,85.26
3019.00,85.37
3018.00,85.48
3017.00,85.59
3016.00,85.68
3015.00,85.78
3014.00,85.87
3013.00,85.96
3012.00,86.05
3011.00,86.13
3010.00,86.21
3009.00,86.28
3008.00,86.36
3007.00,86.43
3006.00,86.49
3005.00,86.55
3004.00,86.60
3003.00,86.65
3002.00,86.70
3001.00,86.74
3000.00,86.77
2999.00,86.80
2998.00,86.82
2997.00,86.83
2996.00,86.84
2995.00,86.85
2994.00,86.84
2993.00,86.83
2992.00,86.81
2991.00,86.79
2990.00,86.76
2989.00,86.72
2988.00,86.68
2987.00,86.64
2986.00,86.59
2985.00,86.54
2984.00,86.48
2983.00,86.42
2982.00,86.35
2981.00,86.29
2980.00,86.22
2979.00,86.16
2978.00,86.09
2977.00,86.02
2976.00,85.95
2975.00,85.88
2974.00,85.80
2973.00,85.71
2972.00,85.63
2971.00,85.54
2970.00,85.46
2969.00,85.37
2968.00,85.28
2967.00,85.18
2966.00,85.07
2965.00,84.94
2964.00,84.81
2963.00,84.66
2962.00,84.51
2961.00,84.36
2960.00,84.19
2959.00,84.03
2958.00,83.85
2957.00,83.67
2956.00,83.49
2955.00,83.30
2954.00,83.11
2953.00,82.92
2952.00,82.73
2951.00,82.54
2950.00,82.35
2949.00,82.16
2948.00,81.98
2947.00,81.80
2946.00,81.62
2945.00,81.45
2944.00,81.29
2943.00,81.13
2942.00,80.98
2941.00,80.84
2940.00,80.71
2939.00,80.59
2938.00,80.48
2937.00,80.39
2936.00,80.31
2935.00,80.26
2934.00,80.23
2933.00,80.21
2932.00,80.21
2931.00,80.22
2930.00,80.24
2929.00,80.28
2928.00,80.33
2927.00,80.39
2926.00,80.47
2925.00,80.57
2924.00,80.67
2923.00,80.78
2922.00,80.90
2921.00,81.02
2920.00,81.15
2919.00,81.28
2918.00,81.40
2917.00,81.53
2916.00,81.65
2915.00,81.76
2914.00,81.88
2913.00,81.99
2912.00,82.10
2911.00,82.19
2910.00,82.27
2909.00,82.34
2908.00,82.41
2907.00,82.47
2906.00,82.52
2905.00,82.57
2904.00,82.61
2903.00,82.63
2902.00,82.66
2901.00,82.68
2900.00,82.70
2899.00,82.71
2898.00,82.73
2897.00,82.73
2896.00,82.74
2895.00,82.74
2894.00,82.75
2893.00,82.76
2892.00,82.78
2891.00,82.79
2890.00,82.80
2889.00,82.83
2888.00,82.85
2887.00,82.89
2886.00,82.93
2885.00,82.98
2884.00,83.04
2883.00,83.11
2882.00,83.19
2881.00,83.28
2880.00,83.38
2879.00,83.49
2878.00,83.60
2877.00,83.72
2876.00,83.85
2875.00,83.99
2874.00,84.13
2873.00,84.27
2872.00,84.42
2871.00,84.57
2870.00,84.72
2869.00,84.87
2868.00,85.02
2867.00,85.16
2866.00,85.30
2865.00,85.43
2864.00,85.55
2863.00,85.66
2862.00,85.77
2861.00,85.88
2860.00,85.98
2859.00,86.09
2858.00,86.19
2857.00,86.29
2856.00,86.40
2855.00,86.51
2854.00,86.63
2853.00,86.74
2852.00,86.87
2851.00,87.00
2850.00,87.14
2849.00,87.28
2848.00,87.43
2847.00,87.58
2846.00,87.73
2845.00,87.87
2844.00,88.01
2843.00,88.15
2842.00,88.27
2841.00,88.40
2840.00,88.51
2839.00,88.62
2838.00,88.73
2837.00,88.83
2836.00,88.94
2835.00,89.04
2834.00,89.13
2833.00,89.23
2832.00,89.33
2831.00,89.43
2830.00,89.52
2829.00,89.61
2828.00,89.70
2827.00,89.79
2826.00,89.88
2825.00,89.96
2824.00,90.04
2823.00,90.12
2822.00,90.20
2821.00,90.28
2820.00,90.35
2819.00,90.43
2818.00,90.50
2817.00,90.58
2816.00,90.66
2815.00,90.73
2814.00,90.81
2813.00,90.88
2812.00,90.94
2811.00,91.01
2810.00,91.08
2809.00,91.14
2808.00,91.20
2807.00,91.26
2806.00,91.33
2805.00,91.39
2804.00,91.44
2803.00,91.50
2802.00,91.55
2801.00,91.60
2800.00,91.66
2799.00,91.71
2798.00,91.77
2797.00,91.82
2796.00,91.88
2795.00,91.93
2794.00,91.98
2793.00,92.03
2792.00,92.08
2791.00,92.13
2790.00,92.17
2789.00,92.22
2788.00,92.26
2787.00,92.31
2786.00,92.36
2785.00,92.40
2784.00,92.45
2783.00,92.49
2782.00,92.53
2781.00,92.57
2780.00,92.61
2779.00,92.65
2778.00,92.69
2777.00,92.73
2776.00,92.76
2775.00,92.80
2774.00,92.83
2773.00,92.87
2772.00,92.90
2771.00,92.94
2770.00,92.97
2769.00,93.01
2768.00,93.04
2767.00,93.08
2766.00,93.11
2765.00,93.15
2764.00,93.18
2763.00,93.20
2762.00,93.23
2761.00,93.26
2760.00,93.28
2759.00,93.31
2758.00,93.34
2757.00,93.37
2756.00,93.39
2755.00,93.42
2754.00,93.44
2753.00,93.47
2752.00,93.50
2751.00,93.52
2750.00,93.55
2749.00,93.57
2748.00,93.58
2747.00,93.60
2746.00,93.62
2745.00,93.64
2744.00,93.67
2743.00,93.69
2742.00,93.72
2741.00,93.73
2740.00,93.75
2739.00,93.77
2738.00,93.78
2737.00,93.80
2736.00,93.82
2735.00,93.83
2734.00,93.85
2733.00,93.87
2732.00,93.89
2731.00,93.91
2730.00,93.93
2729.00,93.96
2728.00,93.98
2727.00,94.00
2726.00,94.02
2725.00,94.04
2724.00,94.05
2723.00,94.07
2722.00,94.09
2721.00,94.11
2720.00,94.13
2719.00,94.15
2718.00,94.17
2717.00,94.19
2716.00,94.21
2715.00,94.24
2714.00,94.26
2713.00,94.28
2712.00,94.31
2711.00,94.33
2710.00,94.35
2709.00,94.37
2708.00,94.39
2707.00,94.41
2706.00,94.43
2705.00,94.45
2704.00,94.47
2703.00,94.50
2702.00,94.53
2701.00,94.56
2700.00,94.58
2699.00,94.60
2698.00,94.62
2697.00,94.64
2696.00,94.67
2695.00,94.70
2694.00,94.72
2693.00,94.74
2692.00,94.76
2691.00,94.79
2690.00,94.81
2689.00,94.84
2688.00,94.86
2687.00,94.89
2686.00,94.91
2685.00,94.94
2684.00,94.96
2683.00,94.99
2682.00,95.02
2681.00,95.05
2680.00,95.08
2679.00,95.11
2678.00,95.14
2677.00,95.16
2676.00,95.19
2675.00,95.22
2674.00,95.26
2673.00,95.29
2672.00,95.32
2671.00,95.35
2670.00,95.38
2669.00,95.41
2668.00,95.44
2667.00,95.47
2666.00,95.50
2665.00,95.53
2664.00,95.56
2663.00,95.59
2662.00,95.62
2661.00,95.65
2660.00,95.67
2659.00,95.70
2658.00,95.73
2657.00,95.76
2656.00,95.79
2655.00,95.82
2654.00,95.85
2653.00,95.88
2652.00,95.91
2651.00,95.94
2650.00,95.97
2649.00,96.00
2648.00,96.04
2647.00,96.07
2646.00,96.10
2645.00,96.13
2644.00,96.16
2643.00,96.18
2642.00,96.21
2641.00,96.24
2640.00,96.27
2639.00,96.30
2638.00,96.32
2637.00,96.34
2636.00,96.37
2635.00,96.40
2634.00,96.43
2633.00,96.45
2632.00,96.48
2631.00,96.50
2630.00,96.52
2629.00,96.54
2628.00,96.57
2627.00,96.59
2626.00,96.61
2625.00,96.64
2624.00,96.66
2623.00,96.69
2622.00,96.72
2621.00,96.74
2620.00,96.77
2619.00,96.79
2618.00,96.81
2617.00,96.83
2616.00,96.85
2615.00,96.88
2614.00,96.90
2613.00,96.93
2612.00,96.95
2611.00,96.97
2610.00,96.99
2609.00,97.01
2608.00,97.03
2607.00,97.05
2606.00,97.07
2605.00,97.08
2604.00,97.10
2603.00,97.11
2602.00,97.13
2601.00,97.15
2600.00,97.17
2599.00,97.19
2598.00,97.21
2597.00,97.22
2596.00,97.23
2595.00,97.24
2594.00,97.25
2593.00,97.27
2592.00,97.28
2591.00,97.30
2590.00,97.32
2589.00,97.34
2588.00,97.35
2587.00,97.36
2586.00,97.38
2585.00,97.39
2584.00,97.41
2583.00,97.43
2582.00,97.45
2581.00,97.46
2580.00,97.47
2579.00,97.48
2578.00,97.49
2577.00,97.50
2576.00,97.51
2575.00,97.53
2574.00,97.55
2573.00,97.57
2572.00,97.58
2571.00,97.58
2570.00,97.59
2569.00,97.59
2568.00,97.60
2567.00,97.61
2566.00,97.63
2565.00,97.64
2564.00,97.65
2563.00,97.66
2562.00,97.67
2561.00,97.68
2560.00,97.70
2559.00,97.71
2558.00,97.72
2557.00,97.73
2556.00,97.75
2555.00,97.76
2554.00,97.78
2553.00,97.79
2552.00,97.80
2551.00,97.80
2550.00,97.81
2549.00,97.81
2548.00,97.81
2547.00,97.82
2546.00,97.83
2545.00,97.84
2544.00,97.86
2543.00,97.87
2542.00,97.88
2541.00,97.89
2540.00,97.90
2539.00,97.91
2538.00,97.92
2537.00,97.92
2536.00,97.93
2535.00,97.93
2534.00,97.94
2533.00,97.95
2532.00,97.96
2531.00,97.97
2530.00,97.99
2529.00,97.99
2528.00,98.00
2527.00,98.00
2526.00,98.01
2525.00,98.02
2524.00,98.03
2523.00,98.04
2522.00,98.05
2521.00,98.05
2520.00,98.06
2519.00,98.07
2518.00,98.08
2517.00,98.09
2516.00,98.10
2515.00,98.11
2514.00,98.12
2513.00,98.13
2512.00,98.14
2511.00,98.15
2510.00,98.16
2509.00,98.17
2508.00,98.18
2507.00,98.20
2506.00,98.21
2505.00,98.22
2504.00,98.22
2503.00,98.23
2502.00,98.24
2501.00,98.25
2500.00,98.27
2499.00,98.28
2498.00,98.29
2497.00,98.30
2496.00,98.31
2495.00,98.32
2494.00,98.34
2493.00,98.35
2492.00,98.36
2491.00,98.37
2490.00,98.37
2489.00,98.37
2488.00,98.38
2487.00,98.39
2486.00,98.40
2485.00,98.42
2484.00,98.44
2483.00,98.46
2482.00,98.47
2481.00,98.48
2480.00,98.49
2479.00,98.50
2478.00,98.52
2477.00,98.54
2476.00,98.55
2475.00,98.56
2474.00,98.57
2473.00,98.59
2472.00,98.60
2471.00,98.62
2470.00,98.63
2469.00,98.64
2468.00,98.65
2467.00,98.66
2466.00,98.68
2465.00,98.70
2464.00,98.71
2463.00,98.73
2462.00,98.75
2461.00,98.76
2460.00,98.78
2459.00,98.80
2458.00,98.81
2457.00,98.82
2456.00,98.83
2455.00,98.84
2454.00,98.85
2453.00,98.86
2452.00,98.87
2451.00,98.88
2450.00,98.90
2449.00,98.92
2448.00,98.94
2447.00,98.95
2446.00,98.97
2445.00,98.98
2444.00,98.99
2443.00,99.00
2442.00,99.01
2441.00,99.03
2440.00,99.04
2439.00,99.05
2438.00,99.07
2437.00,99.08
2436.00,99.09
2435.00,99.10
2434.00,99.11
2433.00,99.12
2432.00,99.14
2431.00,99.15
2430.00,99.16
2429.00,99.17
2428.00,99.19
2427.00,99.20
2426.00,99.22
2425.00,99.23
2424.00,99.23
2423.00,99.24
2422.00,99.25
2421.00,99.26
2420.00,99.28
2419.00,99.29
2418.00,99.30
2417.00,99.31
2416.00,99.31
2415.00,99.31
2414.00,99.32
2413.00,99.33
2412.00,99.34
2411.00,99.35
2410.00,99.36
2409.00,99.37
2408.00,99.38
2407.00,99.39
2406.00,99.39
2405.00,99.40
2404.00,99.41
2403.00,99.41
2402.00,99.43
2401.00,99.44
2400.00,99.45
2399.00,99.45
2398.00,99.45
2397.00,99.45
2396.00,99.46
2395.00,99.47
2394.00,99.48
2393.00,99.48
2392.00,99.49
2391.00,99.49
2390.00,99.50
2389.00,99.49
2388.00,99.49
2387.00,99.48
2386.00,99.48
2385.00,99.48
2384.00,99.48
2383.00,99.47
2382.00,99.48
2381.00,99.49
2380.00,99.50
2379.00,99.53
2378.00,99.55
2377.00,99.56
2376.00,99.57
2375.00,99.58
2374.00,99.57
2373.00,99.56
2372.00,99.55
2371.00,99.54
2370.00,99.54
2369.00,99.54
2368.00,99.54
2367.00,99.55
2366.00,99.56
2365.00,99.56
2364.00,99.56
2363.00,99.56
2362.00,99.56
2361.00,99.57
2360.00,99.57
2359.00,99.56
2358.00,99.55
2357.00,99.53
2356.00,99.53
2355.00,99.56
2354.00,99.59
2353.00,99.61
2352.00,99.62
2351.00,99.61
2350.00,99.59
2349.00,99.58
2348.00,99.57
2347.00,99.57
2346.00,99.58
2345.00,99.59
2344.00,99.58
2343.00,99.57
2342.00,99.57
2341.00,99.57
2340.00,99.58
2339.00,99.59
2338.00,99.60
2337.00,99.61
2336.00,99.61
2335.00,99.61
2334.00,99.61
2333.00,99.61
2332.00,99.60
2331.00,99.60
2330.00,99.59
2329.00,99.57
2328.00,99.55
2327.00,99.54
2326.00,99.53
2325.00,99.53
2324.00,99.52
2323.00,99.52
2322.00,99.52
2321.00,99.53
2320.00,99.55
2319.00,99.56
2318.00,99.57
2317.00,99.58
2316.00,99.58
2315.00,99.58
2314.00,99.58
2313.00,99.58
2312.00,99.58
2311.00,99.56
2310.00,99.55
2309.00,99.54
2308.00,99.53
2307.00,99.54
2306.00,99.55
2305.00,99.55
2304.00,99.55
2303.00,99.55
2302.00,99.55
2301.00,99.54
2300.00,99.54
2299.00,99.54
2298.00,99.55
2297.00,99.56
2296.00,99.56
2295.00,99.57
2294.00,99.57
2293.00,99.57
2292.00,99.58
2291.00,99.58
2290.00,99.59
2289.00,99.59
2288.00,99.59
2287.00,99.58
2286.00,99.58
2285.00,99.58
2284.00,99.57
2283.00,99.57
2282.00,99.58
2281.00,99.58
2280.00,99.58
2279.00,99.59
2278.00,99.60
2277.00,99.60
2276.00,99.60
2275.00,99.59
2274.00,99.58
2273.00,99.57
2272.00,99.56
2271.00,99.55
2270.00,99.55
2269.00,99.54
2268.00,99.54
2267.00,99.54
2266.00,99.55
2265.00,99.55
2264.00,99.54
2263.00,99.53
2262.00,99.53
2261.00,99.52
2260.00,99.52
2259.00,99.51
2258.00,99.51
2257.00,99.50
2256.00,99.50
2255.00,99.50
2254.00,99.50
2253.00,99.50
2252.00,99.50
2251.00,99.50
2250.00,99.50
2249.00,99.49
2248.00,99.49
2247.00,99.49
2246.00,99.49
2245.00,99.48
2244.00,99.46
2243.00,99.45
2242.00,99.44
2241.00,99.43
2240.00,99.43
2239.00,99.42
2238.00,99.42
2237.00,99.41
2236.00,99.40
2235.00,99.39
2234.00,99.40
2233.00,99.41
2232.00,99.42
2231.00,99.41
2230.00,99.40
2229.00,99.38
2228.00,99.37
2227.00,99.37
2226.00,99.38
2225.00,99.40
2224.00,99.41
2223.00,99.42
2222.00,99.43
2221.00,99.41
2220.00,99.39
2219.00,99.38
2218.00,99.36
2217.00,99.35
2216.00,99.34
2215.00,99.34
2214.00,99.35
2213.00,99.36
2212.00,99.35
2211.00,99.35
2210.00,99.35
2209.00,99.34
2208.00,99.32
2207.00,99.30
2206.00,99.30
2205.00,99.31
2204.00,99.32
2203.00,99.32
2202.00,99.31
2201.00,99.31
2200.00,99.30
2199.00,99.31
2198.00,99.31
2197.00,99.30
2196.00,99.26
2195.00,99.23
2194.00,99.22
2193.00,99.21
2192.00,99.20
2191.00,99.21
2190.00,99.22
2189.00,99.23
2188.00,99.23
2187.00,99.21
2186.00,99.20
2185.00,99.20
2184.00,99.22
2183.00,99.25
2182.00,99.26
2181.00,99.25
2180.00,99.23
2179.00,99.21
2178.00,99.22
2177.00,99.22
2176.00,99.21
2175.00,99.20
2174.00,99.17
2173.00,99.13
2172.00,99.10
2171.00,99.09
2170.00,99.10
2169.00,99.10
2168.00,99.09
2167.00,99.08
2166.00,99.09
2165.00,99.09
2164.00,99.10
2163.00,99.10
2162.00,99.10
2161.00,99.08
2160.00,99.07
2159.00,99.08
2158.00,99.11
2157.00,99.13
2156.00,99.14
2155.00,99.14
2154.00,99.12
2153.00,99.09
2152.00,99.07
2151.00,99.07
2150.00,99.08
2149.00,99.07
2148.00,99.04
2147.00,99.02
2146.00,99.01
2145.00,99.01
2144.00,99.02
2143.00,99.03
2142.00,99.04
2141.00,99.02
2140.00,99.00
2139.00,98.98
2138.00,98.97
2137.00,98.97
2136.00,98.98
2135.00,98.98
2134.00,98.99
2133.00,98.99
2132.00,98.98
2131.00,98.98
2130.00,98.98
2129.00,98.99
2128.00,98.99
2127.00,99.00
2126.00,98.99
2125.00,98.98
2124.00,98.98
2123.00,98.98
2122.00,98.99
2121.00,99.00
2120.00,99.00
2119.00,99.00
2118.00,99.00
2117.00,99.00
2116.00,99.00
2115.00,99.01
2114.00,99.01
2113.00,98.99
2112.00,98.98
2111.00,98.98
2110.00,98.98
2109.00,98.99
2108.00,98.99
2107.00,98.99
2106.00,99.00
2105.00,99.01
2104.00,99.01
2103.00,99.03
2102.00,99.05
2101.00,99.06
2100.00,99.06
2099.00,99.05
2098.00,99.05
2097.00,99.06
2096.00,99.06
2095.00,99.07
2094.00,99.08
2093.00,99.08
2092.00,99.08
2091.00,99.09
2090.00,99.10
2089.00,99.11
2088.00,99.11
2087.00,99.11
2086.00,99.11
2085.00,99.12
2084.00,99.14
2083.00,99.16
2082.00,99.17
2081.00,99.17
2080.00,99.17
2079.00,99.18
2078.00,99.20
2077.00,99.20
2076.00,99.20
2075.00,99.21
2074.00,99.22
2073.00,99.23
2072.00,99.23
2071.00,99.24
2070.00,99.26
2069.00,99.26
2068.00,99.26
2067.00,99.26
2066.00,99.27
2065.00,99.29
2064.00,99.29
2063.00,99.30
2062.00,99.30
2061.00,99.30
2060.00,99.30
2059.00,99.32
2058.00,99.33
2057.00,99.34
2056.00,99.34
2055.00,99.35
2054.00,99.36
2053.00,99.36
2052.00,99.35
2051.00,99.36
2050.00,99.37
2049.00,99.38
2048.00,99.40
2047.00,99.43
2046.00,99.47
2045.00,99.48
2044.00,99.47
2043.00,99.46
2042.00,99.47
2041.00,99.50
2040.00,99.51
2039.00,99.51
2038.00,99.52
2037.00,99.52
2036.00,99.52
2035.00,99.53
2034.00,99.56
2033.00,99.59
2032.00,99.62
2031.00,99.64
2030.00,99.66
2029.00,99.65
2028.00,99.64
2027.00,99.64
2026.00,99.66
2025.00,99.69
2024.00,99.73
2023.00,99.77
2022.00,99.79
2021.00,99.77
2020.00,99.72
2019.00,99.69
2018.00,99.70
2017.00,99.73
2016.00,99.74
2015.00,99.75
2014.00,99.75
2013.00,99.73
2012.00,99.72
2011.00,99.73
2010.00,99.76
2009.00,99.79
2008.00,99.82
2007.00,99.84
2006.00,99.86
2005.00,99.84
2004.00,99.81
2003.00,99.79
2002.00,99.81
2001.00,99.83
2000.00,99.86
1999.00,99.88
1998.00,99.89
1997.00,99.89
1996.00,99.87
1995.00,99.87
1994.00,99.88
1993.00,99.89
1992.00,99.88
1991.00,99.88
1990.00,99.89
1989.00,99.90
1988.00,99.90
1987.00,99.91
1986.00,99.93
1985.00,99.93
1984.00,99.92
1983.00,99.92
1982.00,99.93
1981.00,99.94
1980.00,99.95
1979.00,99.97
1978.00,99.99
1977.00,99.98
1976.00,99.96
1975.00,99.95
1974.00,99.97
1973.00,99.98
1972.00,99.96
1971.00,99.94
1970.00,99.94
1969.00,99.95
1968.00,99.96
1967.00,99.97
1966.00,99.99
1965.00,100.00
1964.00,100.01
1963.00,100.03
1962.00,100.04
1961.00,100.03
1960.00,100.00
1959.00,99.99
1958.00,100.00
1957.00,99.99
1956.00,99.98
1955.00,99.99
1954.00,100.01
1953.00,100.02
1952.00,100.00
1951.00,99.99
1950.00,99.99
1949.00,99.99
1948.00,99.99
1947.00,99.98
1946.00,99.98
1945.00,99.98
1944.00,99.98
1943.00,100.02
1942.00,100.06
1941.00,100.07
1940.00,100.05
1939.00,100.03
1938.00,100.02
1937.00,100.02
1936.00,100.01
1935.00,100.01
1934.00,100.02
1933.00,100.03
1932.00,100.03
1931.00,100.03
1930.00,100.03
1929.00,100.02
1928.00,100.02
1927.00,100.03
1926.00,100.04
1925.00,100.04
1924.00,100.04
1923.00,100.05
1922.00,100.06
1921.00,100.06
1920.00,100.04
1919.00,100.03
1918.00,100.03
1917.00,100.03
1916.00,100.02
1915.00,100.02
1914.00,100.03
1913.00,100.03
1912.00,100.03
1911.00,100.03
1910.00,100.05
1909.00,100.05
1908.00,100.04
1907.00,100.03
1906.00,100.02
1905.00,100.02
1904.00,100.01
1903.00,100.02
1902.00,100.04
1901.00,100.05
1900.00,100.05
1899.00,100.05
1898.00,100.04
1897.00,100.03
1896.00,100.03
1895.00,100.04
1894.00,100.05
1893.00,100.05
1892.00,100.03
1891.00,100.02
1890.00,100.02
1889.00,100.02
1888.00,100.02
1887.00,100.02
1886.00,100.03
1885.00,100.04
1884.00,100.04
1883.00,100.04
1882.00,100.03
1881.00,100.03
1880.00,100.02
1879.00,100.02
1878.00,100.03
1877.00,100.04
1876.00,100.04
1875.00,100.04
1874.00,100.05
1873.00,100.05
1872.00,100.04
1871.00,100.03
1870.00,100.03
1869.00,100.03
1868.00,100.04
1867.00,100.04
1866.00,100.05
1865.00,100.04
1864.00,100.03
1863.00,100.03
1862.00,100.04
1861.00,100.05
1860.00,100.05
1859.00,100.05
1858.00,100.05
1857.00,100.05
1856.00,100.04
1855.00,100.03
1854.00,100.03
1853.00,100.03
1852.00,100.03
1851.00,100.03
1850.00,100.03
1849.00,100.04
1848.00,100.04
1847.00,100.03
1846.00,100.03
1845.00,100.01
1844.00,100.00
1843.00,100.01
1842.00,100.01
1841.00,100.02
1840.00,100.03
1839.00,100.04
1838.00,100.05
1837.00,100.06
1836.00,100.06
1835.00,100.05
1834.00,100.05
1833.00,100.04
1832.00,100.02
1831.00,100.01
1830.00,100.03
1829.00,100.04
1828.00,100.03
1827.00,100.02
1826.00,100.02
1825.00,100.03
1824.00,100.04
1823.00,100.05
1822.00,100.06
1821.00,100.06
1820.00,100.04
1819.00,100.03
1818.00,100.04
1817.00,100.04
1816.00,100.05
1815.00,100.05
1814.00,100.05
1813.00,100.05
1812.00,100.05
1811.00,100.05
1810.00,100.05
1809.00,100.05
1808.00,100.04
1807.00,100.04
1806.00,100.05
1805.00,100.04
1804.00,100.03
1803.00,100.03
1802.00,100.04
1801.00,100.05
1800.00,100.04
1799.00,100.04
1798.00,100.05
1797.00,100.05
1796.00,100.06
1795.00,100.05
1794.00,100.03
1793.00,100.01
1792.00,100.00
1791.00,100.00
1790.00,100.02
1789.00,100.03
1788.00,100.04
1787.00,100.04
1786.00,100.04
1785.00,100.03
1784.00,100.02
1783.00,100.02
1782.00,100.04
1781.00,100.05
1780.00,100.06
1779.00,100.05
1778.00,100.05
1777.00,100.04
1776.00,100.04
1775.00,100.04
1774.00,100.04
1773.00,100.03
1772.00,100.02
1771.00,100.00
1770.00,100.00
1769.00,99.99
1768.00,100.00
1767.00,100.01
1766.00,100.01
1765.00,100.01
1764.00,99.99
1763.00,99.98
1762.00,99.97
1761.00,99.96
1760.00,99.94
1759.00,99.93
1758.00,99.92
1757.00,99.89
1756.00,99.85
1755.00,99.82
1754.00,99.79
1753.00,99.75
1752.00,99.70
1751.00,99.66
1750.00,99.64
1749.00,99.62
1748.00,99.60
1747.00,99.58
1746.00,99.55
1745.00,99.52
1744.00,99.49
1743.00,99.46
1742.00,99.42
1741.00,99.36
1740.00,99.29
1739.00,99.25
1738.00,99.23
1737.00,99.22
1736.00,99.19
1735.00,99.14
1734.00,99.11
1733.00,99.08
1732.00,99.05
1731.00,99.04
1730.00,99.03
1729.00,99.00
1728.00,98.96
1727.00,98.91
1726.00,98.88
1725.00,98.85
1724.00,98.81
1723.00,98.78
1722.00,98.75
1721.00,98.71
1720.00,98.65
1719.00,98.60
1718.00,98.57
1717.00,98.55
1716.00,98.50
1715.00,98.43
1714.00,98.37
1713.00,98.31
1712.00,98.25
1711.00,98.20
1710.00,98.14
1709.00,98.08
1708.00,98.00
1707.00,97.91
1706.00,97.82
1705.00,97.74
1704.00,97.65
1703.00,97.56
1702.00,97.45
1701.00,97.25
1700.00,97.04
1699.00,96.93
1698.00,96.91
1697.00,96.88
1696.00,96.77
1695.00,96.58
1694.00,96.41
1693.00,96.27
1692.00,96.13
1691.00,95.99
1690.00,95.83
1689.00,95.67
1688.00,95.52
1687.00,95.40
1686.00,95.24
1685.00,94.99
1684.00,94.68
1683.00,94.40
1682.00,94.19
1681.00,94.03
1680.00,93.87
1679.00,93.69
1678.00,93.49
1677.00,93.25
1676.00,92.95
1675.00,92.65
1674.00,92.42
1673.00,92.25
1672.00,92.08
1671.00,91.87
1670.00,91.63
1669.00,91.36
1668.00,91.11
1667.00,90.92
1666.00,90.77
1665.00,90.61
1664.00,90.41
1663.00,90.19
1662.00,89.99
1661.00,89.80
1660.00,89.63
1659.00,89.47
1658.00,89.34
1657.00,89.21
1656.00,89.10
1655.00,88.97
1654.00,88.80
1653.00,88.60
1652.00,88.42
1651.00,88.34
1650.00,88.33
1649.00,88.31
1648.00,88.27
1647.00,88.23
1646.00,88.19
1645.00,88.14
1644.00,88.12
1643.00,88.14
1642.00,88.18
1641.00,88.23
1640.00,88.29
1639.00,88.34
1638.00,88.41
1637.00,88.50
1636.00,88.60
1635.00,88.72
1634.00,88.85
1633.00,89.00
1632.00,89.16
1631.00,89.33
1630.00,89.52
1629.00,89.72
1628.00,89.93
1627.00,90.15
1626.00,90.37
1625.00,90.59
1624.00,90.82
1623.00,91.09
1622.00,91.35
1621.00,91.60
1620.00,91.82
1619.00,92.05
1618.00,92.32
1617.00,92.64
1616.00,92.94
1615.00,93.18
1614.00,93.39
1613.00,93.60
1612.00,93.82
1611.00,94.04
1610.00,94.27
1609.00,94.51
1608.00,94.73
1607.00,94.95
1606.00,95.14
1605.00,95.33
1604.00,95.52
1603.00,95.71
1602.00,95.89
1601.00,96.06
1600.00,96.21
1599.00,96.35
1598.00,96.49
1597.00,96.63
1596.00,96.77
1595.00,96.91
1594.00,97.05
1593.00,97.18
1592.00,97.31
1591.00,97.42
1590.00,97.53
1589.00,97.64
1588.00,97.74
1587.00,97.84
1586.00,97.94
1585.00,98.04
1584.00,98.13
1583.00,98.22
1582.00,98.31
1581.00,98.40
1580.00,98.48
1579.00,98.56
1578.00,98.66
1577.00,98.77
1576.00,98.87
1575.00,98.93
1574.00,98.96
1573.00,99.00
1572.00,99.04
1571.00,99.08
1570.00,99.13
1569.00,99.19
1568.00,99.25
1567.00,99.30
1566.00,99.36
1565.00,99.41
1564.00,99.47
1563.00,99.53
1562.00,99.58
1561.00,99.59
1560.00,99.57
1559.00,99.61
1558.00,99.65
1557.00,99.62
1556.00,99.66
1555.00,99.73
1554.00,99.79
1553.00,99.81
1552.00,99.84
1551.00,99.87
1550.00,99.92
1549.00,99.95
1548.00,99.95
1547.00,99.95
1546.00,99.95
1545.00,99.96
1544.00,99.98
1543.00,100.01
1542.00,100.02
1541.00,100.04
1540.00,100.07
1539.00,100.07
1538.00,100.05
1537.00,100.05
1536.00,100.04
1535.00,100.04
1534.00,100.03
1533.00,100.04
1532.00,100.04
1531.00,100.05
1530.00,100.07
1529.00,100.07
1528.00,100.06
1527.00,100.06
1526.00,100.07
1525.00,100.06
1524.00,100.05
1523.00,100.06
1522.00,100.07
1521.00,100.07
1520.00,100.04
1519.00,100.02
1518.00,100.02
1517.00,100.03
1516.00,100.04
1515.00,100.03
1514.00,100.02
1513.00,100.00
1512.00,99.97
1511.00,99.96
1510.00,99.96
1509.00,99.95
1508.00,99.93
1507.00,99.91
1506.00,99.82
1505.00,99.68
1504.00,99.63
1503.00,99.62
1502.00,99.61
1501.00,99.56
1500.00,99.47
1499.00,99.39
1498.00,99.31
1497.00,99.21
1496.00,99.08
1495.00,98.96
1494.00,98.85
1493.00,98.70
1492.00,98.52
1491.00,98.35
1490.00,98.19
1489.00,98.01
1488.00,97.81
1487.00,97.62
1486.00,97.42
1485.00,97.20
1484.00,96.97
1483.00,96.75
1482.00,96.50
1481.00,96.23
1480.00,95.94
1479.00,95.66
1478.00,95.35
1477.00,95.00
1476.00,94.64
1475.00,94.29
1474.00,93.91
1473.00,93.42
1472.00,92.89
1471.00,92.42
1470.00,92.03
1469.00,91.67
1468.00,91.30
1467.00,90.91
1466.00,90.44
1465.00,89.92
1464.00,89.43
1463.00,89.03
1462.00,88.70
1461.00,88.40
1460.00,88.11
1459.00,87.81
1458.00,87.45
1457.00,87.04
1456.00,86.70
1455.00,86.52
1454.00,86.44
1453.00,86.38
1452.00,86.31
1451.00,86.26
1450.00,86.21
1449.00,86.14
1448.00,86.08
1447.00,86.04
1446.00,86.01
1445.00,85.95
1444.00,85.89
1443.00,85.82
1442.00,85.72
1441.00,85.62
1440.00,85.51
1439.00,85.40
1438.00,85.26
1437.00,85.05
1436.00,84.86
1435.00,84.74
1434.00,84.66
1433.00,84.58
1432.00,84.47
1431.00,84.36
1430.00,84.24
1429.00,84.12
1428.00,84.01
1427.00,83.93
1426.00,83.86
1425.00,83.78
1424.00,83.70
1423.00,83.64
1422.00,83.60
1421.00,83.53
1420.00,83.46
1419.00,83.41
1418.00,83.38
1417.00,83.37
1416.00,83.38
1415.00,83.41
1414.00,83.45
1413.00,83.49
1412.00,83.54
1411.00,83.62
1410.00,83.72
1409.00,83.81
1408.00,83.91
1407.00,84.04
1406.00,84.19
1405.00,84.34
1404.00,84.51
1403.00,84.71
1402.00,84.90
1401.00,85.09
1400.00,85.30
1399.00,85.53
1398.00,85.77
1397.00,85.98
1396.00,86.20
1395.00,86.43
1394.00,86.65
1393.00,86.84
1392.00,87.02
1391.00,87.20
1390.00,87.36
1389.00,87.49
1388.00,87.60
1387.00,87.70
1386.00,87.77
1385.00,87.80
1384.00,87.82
1383.00,87.81
1382.00,87.78
1381.00,87.72
1380.00,87.65
1379.00,87.58
1378.00,87.50
1377.00,87.40
1376.00,87.31
1375.00,87.22
1374.00,87.14
1373.00,87.05
1372.00,86.98
1371.00,86.93
1370.00,86.88
1369.00,86.83
1368.00,86.79
1367.00,86.76
1366.00,86.72
1365.00,86.68
1364.00,86.65
1363.00,86.61
1362.00,86.58
1361.00,86.54
1360.00,86.50
1359.00,86.46
1358.00,86.43
1357.00,86.38
1356.00,86.33
1355.00,86.27
1354.00,86.20
1353.00,86.12
1352.00,86.03
1351.00,85.95
1350.00,85.86
1349.00,85.77
1348.00,85.68
1347.00,85.60
1346.00,85.53
1345.00,85.48
1344.00,85.46
1343.00,85.48
1342.00,85.53
1341.00,85.61
1340.00,85.74
1339.00,85.90
1338.00,86.08
1337.00,86.26
1336.00,86.45
1335.00,86.68
1334.00,86.93
1333.00,87.18
1332.00,87.44
1331.00,87.70
1330.00,87.96
1329.00,88.21
1328.00,88.45
1327.00,88.70
1326.00,88.94
1325.00,89.18
1324.00,89.41
1323.00,89.63
1322.00,89.84
1321.00,90.04
1320.00,90.23
1319.00,90.43
1318.00,90.61
1317.00,90.78
1316.00,90.95
1315.00,91.13
1314.00,91.31
1313.00,91.50
1312.00,91.68
1311.00,91.86
1310.00,92.05
1309.00,92.23
1308.00,92.42
1307.00,92.60
1306.00,92.78
1305.00,92.95
1304.00,93.11
1303.00,93.28
1302.00,93.43
1301.00,93.58
1300.00,93.72
1299.00,93.85
1298.00,93.98
1297.00,94.08
1296.00,94.17
1295.00,94.26
1294.00,94.33
1293.00,94.39
1292.00,94.44
1291.00,94.48
1290.00,94.51
1289.00,94.52
1288.00,94.53
1287.00,94.53
1286.00,94.53
1285.00,94.51
1284.00,94.49
1283.00,94.46
1282.00,94.43
1281.00,94.39
1280.00,94.34
1279.00,94.28
1278.00,94.22
1277.00,94.13
1276.00,94.02
1275.00,93.90
1274.00,93.76
1273.00,93.60
1272.00,93.42
1271.00,93.23
1270.00,93.03
1269.00,92.82
1268.00,92.60
1267.00,92.39
1266.00,92.19
1265.00,92.00
1264.00,91.83
1263.00,91.68
1262.00,91.57
1261.00,91.47
1260.00,91.40
1259.00,91.35
1258.00,91.32
1257.00,91.31
1256.00,91.30
1255.00,91.32
1254.00,91.35
1253.00,91.37
1252.00,91.40
1251.00,91.43
1250.00,91.47
1249.00,91.52
1248.00,91.57
1247.00,91.64
1246.00,91.71
1245.00,91.78
1244.00,91.85
1243.00,91.94
1242.00,92.02
1241.00,92.12
1240.00,92.22
1239.00,92.33
1238.00,92.44
1237.00,92.56
1236.00,92.68
1235.00,92.82
1234.00,92.97
1233.00,93.12
1232.00,93.29
1231.00,93.49
1230.00,93.71
1229.00,93.94
1228.00,94.19
1227.00,94.46
1226.00,94.74
1225.00,95.04
1224.00,95.35
1223.00,95.68
1222.00,96.01
1221.00,96.34
1220.00,96.66
1219.00,96.99
1218.00,97.31
1217.00,97.61
1216.00,97.89
1215.00,98.15
1214.00,98.38
1213.00,98.58
1212.00,98.75
1211.00,98.90
1210.00,99.02
1209.00,99.12
1208.00,99.20
1207.00,99.26
1206.00,99.29
1205.00,99.29
1204.00,99.26
1203.00,99.22
1202.00,99.16
1201.00,99.09
1200.00,99.00
1199.00,98.90
1198.00,98.79
1197.00,98.68
1196.00,98.57
1195.00,98.46
1194.00,98.36
1193.00,98.25
1192.00,98.16
1191.00,98.07
1190.00,97.99
1189.00,97.92
1188.00,97.86
1187.00,97.82
1186.00,97.80
1185.00,97.80
1184.00,97.83
1183.00,97.89
1182.00,97.96
1181.00,98.04
1180.00,98.14
1179.00,98.24
1178.00,98.34
1177.00,98.41
1176.00,98.45
1175.00,98.46
1174.00,98.43
1173.00,98.34
1172.00,98.17
1171.00,97.92
1170.00,97.60
1169.00,97.18
1168.00,96.67
1167.00,96.07
1166.00,95.39
1165.00,94.64
1164.00,93.81
1163.00,92.94
1162.00,92.04
1161.00,91.12
1160.00,90.19
1159.00,89.27
1158.00,88.37
1157.00,87.49
1156.00,86.66
1155.00,85.90
1154.00,85.22
1153.00,84.60
1152.00,84.07
1151.00,83.64
1150.00,83.31
1149.00,83.07
1148.00,82.93
1147.00,82.89
1146.00,82.94
1145.00,83.06
1144.00,83.22
1143.00,83.44
1142.00,83.70
1141.00,83.96
1140.00,84.23
1139.00,84.49
1138.00,84.74
1137.00,84.94
1136.00,85.10
1135.00,85.23
1134.00,85.34
1133.00,85.42
1132.00,85.48
1131.00,85.53
1130.00,85.55
1129.00,85.54
1128.00,85.50
1127.00,85.44
1126.00,85.36
1125.00,85.22
1124.00,85.05
1123.00,84.84
1122.00,84.58
1121.00,84.25
1120.00,83.85
1119.00,83.38
1118.00,82.84
1117.00,82.19
1116.00,81.43
1115.00,80.59
1114.00,79.68
1113.00,78.70
1112.00,77.67
1111.00,76.63
1110.00,75.60
1109.00,74.58
1108.00,73.58
1107.00,72.65
1106.00,71.83
1105.00,71.14
1104.00,70.57
1103.00,70.18
1102.00,69.94
1101.00,69.82
1100.00,69.82
1099.00,69.91
1098.00,70.05
1097.00,70.18
1096.00,70.24
1095.00,70.19
1094.00,70.01
1093.00,69.65
1092.00,69.08
1091.00,68.35
1090.00,67.48
1089.00,66.46
1088.00,65.34
1087.00,64.16
1086.00,62.97
1085.00,61.77
1084.00,60.57
1083.00,59.45
1082.00,58.42
1081.00,57.47
1080.00,56.63
1079.00,55.91
1078.00,55.32
1077.00,54.81
1076.00,54.35
1075.00,53.95
1074.00,53.58
1073.00,53.19
1072.00,52.73
1071.00,52.23
1070.00,51.69
1069.00,51.06
1068.00,50.34
1067.00,49.57
1066.00,48.76
1065.00,47.90
1064.00,47.01
1063.00,46.14
1062.00,45.28
1061.00,44.43
1060.00,43.59
1059.00,42.80
1058.00,42.08
1057.00,41.38
1056.00,40.73
1055.00,40.17
1054.00,39.69
1053.00,39.29
1052.00,38.98
1051.00,38.81
1050.00,38.79
1049.00,38.84
1048.00,38.94
1047.00,39.11
1046.00,39.33
1045.00,39.52
1044.00,39.66
1043.00,39.77
1042.00,39.84
1041.00,39.82
1040.00,39.71
1039.00,39.55
1038.00,39.33
1037.00,39.02
1036.00,38.65
1035.00,38.25
1034.00,37.83
1033.00,37.38
1032.00,36.93
1031.00,36.53
1030.00,36.21
1029.00,35.96
1028.00,35.78
1027.00,35.72
1026.00,35.78
1025.00,35.92
1024.00,36.14
1023.00,36.47
1022.00,36.86
1021.00,37.28
1020.00,37.70
1019.00,38.13
1018.00,38.55
1017.00,38.92
1016.00,39.26
1015.00,39.60
1014.00,39.97
1013.00,40.36
1012.00,40.81
1011.00,41.38
1010.00,42.09
1009.00,42.95
1008.00,43.95
1007.00,45.12
1006.00,46.45
1005.00,47.88
1004.00,49.38
1003.00,50.93
1002.00,52.50
1001.00,53.99
1000.00,55.36
999.00,56.59
998.00,57.65
997.00,58.53
996.00,59.23
995.00,59.80
994.00,60.28
993.00,60.68
992.00,61.05
991.00,61.42
990.00,61.83
989.00,62.24
988.00,62.64
987.00,63.04
986.00,63.40
985.00,63.68
984.00,63.88
983.00,64.04
982.00,64.19
981.00,64.35
980.00,64.60
979.00,65.02
978.00,65.68
977.00,66.57
976.00,67.70
975.00,69.03
974.00,70.46
973.00,71.88
972.00,73.16
971.00,74.22
970.00,75.01
969.00,75.53
968.00,75.84
967.00,76.08
966.00,76.38
965.00,76.88
964.00,77.67
963.00,78.84
962.00,80.38
961.00,82.25
960.00,84.34
959.00,86.55
958.00,88.75
957.00,90.83
956.00,92.70
955.00,94.35
954.00,95.75
953.00,96.90
952.00,97.82
951.00,98.55
950.00,99.12
949.00,99.55
948.00,99.85
947.00,100.05
946.00,100.19
945.00,100.25
944.00,100.26
943.00,100.22
942.00,100.14
941.00,100.03
940.00,99.87
939.00,99.70
938.00,99.52
937.00,99.33
936.00,99.12
935.00,98.91
934.00,98.68
933.00,98.43
932.00,98.13
931.00,97.81
930.00,97.45
929.00,97.04
928.00,96.58
927.00,96.09
926.00,95.57
925.00,95.05
924.00,94.56
923.00,94.13
922.00,93.77
921.00,93.47
920.00,93.25
919.00,93.14
918.00,93.16
917.00,93.29
916.00,93.53
915.00,93.91
914.00,94.39
913.00,94.96
912.00,95.57
911.00,96.17
910.00,96.73
909.00,97.20
908.00,97.57
907.00,97.84
906.00,98.02
905.00,98.10
904.00,98.11
903.00,98.08
902.00,98.03
901.00,97.97
900.00,97.91
899.00,97.88
898.00,97.88
897.00,97.92
896.00,98.00
895.00,98.13
894.00,98.31
893.00,98.52
892.00,98.75
891.00,99.03
890.00,99.33
889.00,99.62
888.00,99.88
887.00,100.12
886.00,100.33
885.00,100.45
884.00,100.49
883.00,100.44
882.00,100.30
881.00,100.04
880.00,99.66
879.00,99.16
878.00,98.56
877.00,97.85
876.00,97.06
875.00,96.25
874.00,95.46
873.00,94.68
872.00,93.93
871.00,93.23
870.00,92.61
869.00,92.09
868.00,91.69
867.00,91.44
866.00,91.35
865.00,91.41
864.00,91.60
863.00,91.95
862.00,92.43
861.00,93.02
860.00,93.69
859.00,94.42
858.00,95.20
857.00,95.95
856.00,96.66
855.00,97.32
854.00,97.93
853.00,98.46
852.00,98.89
851.00,99.26
850.00,99.57
849.00,99.82
848.00,100.00
847.00,100.12
846.00,100.21
845.00,100.24
844.00,100.24
843.00,100.22
842.00,100.20
841.00,100.17
840.00,100.12
839.00,100.06
838.00,99.97
837.00,99.82
836.00,99.60
835.00,99.34
834.00,99.03
833.00,98.63
832.00,98.14
831.00,97.55
830.00,96.88
829.00,96.09
828.00,95.17
827.00,94.15
826.00,93.02
825.00,91.79
824.00,90.49
823.00,89.25
822.00,88.15
821.00,87.20
820.00,86.43
819.00,85.91
818.00,85.67
817.00,85.70
816.00,86.02
815.00,86.63
814.00,87.52
813.00,88.60
812.00,89.81
811.00,91.10
810.00,92.43
809.00,93.72
808.00,94.92
807.00,96.02
806.00,97.01
805.00,97.84
804.00,98.53
803.00,99.11
802.00,99.60
801.00,99.97
800.00,100.22
799.00,100.41
798.00,100.53
797.00,100.55
796.00,100.46
795.00,100.26
794.00,99.95
793.00,99.48
792.00,98.83
791.00,98.02
790.00,97.05
789.00,95.90
788.00,94.58
787.00,93.17
786.00,91.73
785.00,90.29
784.00,88.89
783.00,87.60
782.00,86.49
781.00,85.57
780.00,84.88
779.00,84.47
778.00,84.33
777.00,84.40
776.00,84.63
775.00,85.06
774.00,85.65
773.00,86.34
772.00,87.09
771.00,87.91
770.00,88.79
769.00,89.67
768.00,90.55
767.00,91.42
766.00,92.30
765.00,93.12
764.00,93.86
763.00,94.54
762.00,95.17
761.00,95.71
760.00,96.17
759.00,96.59
758.00,97.00
757.00,97.37
756.00,97.68
755.00,97.97
754.00,98.24
753.00,98.43
752.00,98.56
751.00,98.70
750.00,98.86
749.00,99.01
748.00,99.12
747.00,99.23
746.00,99.35
745.00,99.47
744.00,99.57
743.00,99.67
742.00,99.77
741.00,99.82
740.00,99.83
739.00,99.86
738.00,99.92
737.00,99.97
736.00,99.98
735.00,99.99
734.00,100.04
733.00,100.09
732.00,100.10
731.00,100.12
730.00,100.14
729.00,100.13
728.00,100.08
727.00,100.06
726.00,100.05
725.00,100.02
724.00,99.94
723.00,99.86
722.00,99.77
721.00,99.62
720.00,99.40
719.00,99.17
718.00,98.96
717.00,98.71
716.00,98.42
715.00,98.16
714.00,97.94
713.00,97.69
712.00,97.37
711.00,97.03
710.00,96.71
709.00,96.39
708.00,96.06
707.00,95.80
706.00,95.64
705.00,95.53
704.00,95.43
703.00,95.39
702.00,95.43
701.00,95.50
700.00,95.55
699.00,95.66
698.00,95.82
697.00,95.97
696.00,96.08
695.00,96.20
694.00,96.38
693.00,96.55
692.00,96.70
691.00,96.91
690.00,97.21
689.00,97.48
688.00,97.66
687.00,97.82
686.00,98.01
685.00,98.16
684.00,98.24
683.00,98.33
682.00,98.47
681.00,98.57
680.00,98.60
679.00,98.64
678.00,98.76
677.00,98.85
676.00,98.90
675.00,98.99
674.00,99.13
673.00,99.25
672.00,99.32
671.00,99.45
670.00,99.70
669.00,99.93
668.00,99.95
667.00,99.87
666.00,99.86
665.00,99.86
664.00,99.82
663.00,99.85
662.00,100.00
661.00,100.14
660.00,100.17
659.00,100.18
658.00,100.21
657.00,100.13
656.00,99.94
655.00,99.85
654.00,99.90
653.00,99.91
652.00,99.76
651.00,99.63
650.00,99.62
