Created as New Dataset,Sample 308 By iruser Date Friday, March 13 2026
cm-1,%T
4200.00,100.75
4199.00,100.76
4198.00,100.75
4197.00,100.75
4196.00,100.74
4195.00,100.74
4194.00,100.74
4193.00,100.74
4192.00,100.75
4191.00,100.75
4190.00,100.75
4189.00,100.75
4188.00,100.76
4187.00,100.76
4186.00,100.76
4185.00,100.76
4184.00,100.76
4183.00,100.75
4182.00,100.75
4181.00,100.75
4180.00,100.75
4179.00,100.75
4178.00,100.75
4177.00,100.76
4176.00,100.76
4175.00,100.76
4174.00,100.75
4173.00,100.74
4172.00,100.74
4171.00,100.74
4170.00,100.75
4169.00,100.75
4168.00,100.75
4167.00,100.75
4166.00,100.74
4165.00,100.74
4164.00,100.73
4163.00,100.73
4162.00,100.74
4161.00,100.74
4160.00,100.75
4159.00,100.75
4158.00,100.75
4157.00,100.74
4156.00,100.74
4155.00,100.73
4154.00,100.73
4153.00,100.73
4152.00,100.73
4151.00,100.73
4150.00,100.73
4149.00,100.73
4148.00,100.72
4147.00,100.72
4146.00,100.71
4145.00,100.71
4144.00,100.71
4143.00,100.71
4142.00,100.71
4141.00,100.71
4140.00,100.71
4139.00,100.71
4138.00,100.72
4137.00,100.72
4136.00,100.72
4135.00,100.73
4134.00,100.73
4133.00,100.73
4132.00,100.74
4131.00,100.74
4130.00,100.74
4129.00,100.73
4128.00,100.73
4127.00,100.72
4126.00,100.72
4125.00,100.72
4124.00,100.72
4123.00,100.72
4122.00,100.72
4121.00,100.72
4120.00,100.72
4119.00,100.72
4118.00,100.72
4117.00,100.72
4116.00,100.72
4115.00,100.71
4114.00,100.71
4113.00,100.70
4112.00,100.70
4111.00,100.69
4110.00,100.69
4109.00,100.70
4108.00,100.70
4107.00,100.71
4106.00,100.71
4105.00,100.70
4104.00,100.69
4103.00,100.69
4102.00,100.68
4101.00,100.68
4100.00,100.69
4099.00,100.69
4098.00,100.70
4097.00,100.70
4096.00,100.70
4095.00,100.70
4094.00,100.71
4093.00,100.71
4092.00,100.70
4091.00,100.70
4090.00,100.70
4089.00,100.69
4088.00,100.69
4087.00,100.69
4086.00,100.69
4085.00,100.69
4084.00,100.69
4083.00,100.69
4082.00,100.69
4081.00,100.70
4080.00,100.70
4079.00,100.70
4078.00,100.70
4077.00,100.70
4076.00,100.70
4075.00,100.70
4074.00,100.70
4073.00,100.69
4072.00,100.69
4071.00,100.69
4070.00,100.69
4069.00,100.68
4068.00,100.68
4067.00,100.68
4066.00,100.68
4065.00,100.68
4064.00,100.68
4063.00,100.68
4062.00,100.68
4061.00,100.68
4060.00,100.68
4059.00,100.68
4058.00,100.67
4057.00,100.67
4056.00,100.67
4055.00,100.67
4054.00,100.67
4053.00,100.67
4052.00,100.66
4051.00,100.66
4050.00,100.66
4049.00,100.67
4048.00,100.67
4047.00,100.68
4046.00,100.69
4045.00,100.69
4044.00,100.69
4043.00,100.68
4042.00,100.67
4041.00,100.67
4040.00,100.67
4039.00,100.67
4038.00,100.67
4037.00,100.67
4036.00,100.67
4035.00,100.67
4034.00,100.67
4033.00,100.67
4032.00,100.67
4031.00,100.66
4030.00,100.66
4029.00,100.65
4028.00,100.65
4027.00,100.65
4026.00,100.66
4025.00,100.66
4024.00,100.67
4023.00,100.67
4022.00,100.67
4021.00,100.67
4020.00,100.67
4019.00,100.66
4018.00,100.66
4017.00,100.65
4016.00,100.65
4015.00,100.65
4014.00,100.65
4013.00,100.66
4012.00,100.66
4011.00,100.66
4010.00,100.67
4009.00,100.67
4008.00,100.66
4007.00,100.66
4006.00,100.66
4005.00,100.65
4004.00,100.65
4003.00,100.65
4002.00,100.65
4001.00,100.66
4000.00,100.66
3999.00,100.66
3998.00,100.67
3997.00,100.67
3996.00,100.66
3995.00,100.66
3994.00,100.66
3993.00,100.65
3992.00,100.65
3991.00,100.65
3990.00,100.64
3989.00,100.64
3988.00,100.64
3987.00,100.64
3986.00,100.65
3985.00,100.65
3984.00,100.66
3983.00,100.66
3982.00,100.66
3981.00,100.66
3980.00,100.65
3979.00,100.65
3978.00,100.65
3977.00,100.65
3976.00,100.65
3975.00,100.66
3974.00,100.66
3973.00,100.65
3972.00,100.65
3971.00,100.64
3970.00,100.64
3969.00,100.64
3968.00,100.64
3967.00,100.64
3966.00,100.64
3965.00,100.64
3964.00,100.63
3963.00,100.63
3962.00,100.63
3961.00,100.63
3960.00,100.63
3959.00,100.64
3958.00,100.64
3957.00,100.64
3956.00,100.65
3955.00,100.65
3954.00,100.65
3953.00,100.65
3952.00,100.65
3951.00,100.63
3950.00,100.62
3949.00,100.60
3948.00,100.58
3947.00,100.58
3946.00,100.58
3945.00,100.60
3944.00,100.62
3943.00,100.64
3942.00,100.65
3941.00,100.64
3940.00,100.63
3939.00,100.62
3938.00,100.62
3937.00,100.61
3936.00,100.60
3935.00,100.58
3934.00,100.56
3933.00,100.55
3932.00,100.57
3931.00,100.59
3930.00,100.61
3929.00,100.61
3928.00,100.62
3927.00,100.63
3926.00,100.65
3925.00,100.66
3924.00,100.65
3923.00,100.62
3922.00,100.58
3921.00,100.54
3920.00,100.51
3919.00,100.50
3918.00,100.50
3917.00,100.52
3916.00,100.54
3915.00,100.56
3914.00,100.58
3913.00,100.59
3912.00,100.60
3911.00,100.61
3910.00,100.62
3909.00,100.63
3908.00,100.64
3907.00,100.63
3906.00,100.61
3905.00,100.55
3904.00,100.47
3903.00,100.39
3902.00,100.35
3901.00,100.35
3900.00,100.39
3899.00,100.45
3898.00,100.49
3897.00,100.51
3896.00,100.52
3895.00,100.53
3894.00,100.55
3893.00,100.57
3892.00,100.58
3891.00,100.57
3890.00,100.54
3889.00,100.49
3888.00,100.44
3887.00,100.43
3886.00,100.47
3885.00,100.51
3884.00,100.52
3883.00,100.50
3882.00,100.49
3881.00,100.49
3880.00,100.52
3879.00,100.54
3878.00,100.52
3877.00,100.51
3876.00,100.51
3875.00,100.55
3874.00,100.57
3873.00,100.54
3872.00,100.47
3871.00,100.41
3870.00,100.40
3869.00,100.41
3868.00,100.42
3867.00,100.41
3866.00,100.40
3865.00,100.42
3864.00,100.45
3863.00,100.46
3862.00,100.45
3861.00,100.42
3860.00,100.43
3859.00,100.48
3858.00,100.56
3857.00,100.64
3856.00,100.68
3855.00,100.65
3854.00,100.58
3853.00,100.48
3852.00,100.41
3851.00,100.39
3850.00,100.39
3849.00,100.41
3848.00,100.43
3847.00,100.46
3846.00,100.48
3845.00,100.50
3844.00,100.50
3843.00,100.48
3842.00,100.46
3841.00,100.42
3840.00,100.40
3839.00,100.38
3838.00,100.39
3837.00,100.40
3836.00,100.41
3835.00,100.41
3834.00,100.41
3833.00,100.42
3832.00,100.44
3831.00,100.46
3830.00,100.48
3829.00,100.49
3828.00,100.51
3827.00,100.53
3826.00,100.55
3825.00,100.53
3824.00,100.47
3823.00,100.42
3822.00,100.41
3821.00,100.44
3820.00,100.44
3819.00,100.40
3818.00,100.36
3817.00,100.36
3816.00,100.41
3815.00,100.48
3814.00,100.52
3813.00,100.53
3812.00,100.54
3811.00,100.55
3810.00,100.55
3809.00,100.55
3808.00,100.53
3807.00,100.52
3806.00,100.50
3805.00,100.46
3804.00,100.42
3803.00,100.40
3802.00,100.44
3801.00,100.49
3800.00,100.50
3799.00,100.48
3798.00,100.45
3797.00,100.45
3796.00,100.49
3795.00,100.53
3794.00,100.57
3793.00,100.59
3792.00,100.61
3791.00,100.64
3790.00,100.66
3789.00,100.67
3788.00,100.67
3787.00,100.67
3786.00,100.68
3785.00,100.68
3784.00,100.67
3783.00,100.64
3782.00,100.61
3781.00,100.59
3780.00,100.60
3779.00,100.61
3778.00,100.61
3777.00,100.61
3776.00,100.61
3775.00,100.61
3774.00,100.61
3773.00,100.61
3772.00,100.59
3771.00,100.58
3770.00,100.56
3769.00,100.54
3768.00,100.52
3767.00,100.50
3766.00,100.50
3765.00,100.52
3764.00,100.54
3763.00,100.54
3762.00,100.52
3761.00,100.51
3760.00,100.52
3759.00,100.53
3758.00,100.52
3757.00,100.49
3756.00,100.46
3755.00,100.43
3754.00,100.39
3753.00,100.36
3752.00,100.32
3751.00,100.27
3750.00,100.24
3749.00,100.23
3748.00,100.22
3747.00,100.22
3746.00,100.22
3745.00,100.26
3744.00,100.32
3743.00,100.36
3742.00,100.35
3741.00,100.32
3740.00,100.28
3739.00,100.25
3738.00,100.22
3737.00,100.22
3736.00,100.23
3735.00,100.25
3734.00,100.25
3733.00,100.26
3732.00,100.30
3731.00,100.36
3730.00,100.40
3729.00,100.42
3728.00,100.42
3727.00,100.45
3726.00,100.48
3725.00,100.51
3724.00,100.52
3723.00,100.52
3722.00,100.53
3721.00,100.55
3720.00,100.57
3719.00,100.58
3718.00,100.58
3717.00,100.58
3716.00,100.57
3715.00,100.55
3714.00,100.52
3713.00,100.50
3712.00,100.48
3711.00,100.47
3710.00,100.46
3709.00,100.46
3708.00,100.49
3707.00,100.53
3706.00,100.57
3705.00,100.60
3704.00,100.63
3703.00,100.66
3702.00,100.69
3701.00,100.69
3700.00,100.68
3699.00,100.66
3698.00,100.65
3697.00,100.66
3696.00,100.67
3695.00,100.67
3694.00,100.66
3693.00,100.64
3692.00,100.63
3691.00,100.62
3690.00,100.59
3689.00,100.54
3688.00,100.50
3687.00,100.50
3686.00,100.52
3685.00,100.53
3684.00,100.55
3683.00,100.56
3682.00,100.57
3681.00,100.58
3680.00,100.58
3679.00,100.56
3678.00,100.50
3677.00,100.44
3676.00,100.42
3675.00,100.43
3674.00,100.42
3673.00,100.38
3672.00,100.33
3671.00,100.34
3670.00,100.41
3669.00,100.47
3668.00,100.51
3667.00,100.53
3666.00,100.55
3665.00,100.59
3664.00,100.63
3663.00,100.66
3662.00,100.69
3661.00,100.69
3660.00,100.68
3659.00,100.65
3658.00,100.62
3657.00,100.60
3656.00,100.59
3655.00,100.58
3654.00,100.54
3653.00,100.48
3652.00,100.42
3651.00,100.37
3650.00,100.34
3649.00,100.31
3648.00,100.31
3647.00,100.35
3646.00,100.41
3645.00,100.47
3644.00,100.52
3643.00,100.57
3642.00,100.62
3641.00,100.66
3640.00,100.68
3639.00,100.69
3638.00,100.68
3637.00,100.66
3636.00,100.64
3635.00,100.63
3634.00,100.63
3633.00,100.62
3632.00,100.58
3631.00,100.53
3630.00,100.48
3629.00,100.48
3628.00,100.48
3627.00,100.49
3626.00,100.50
3625.00,100.52
3624.00,100.55
3623.00,100.58
3622.00,100.61
3621.00,100.63
3620.00,100.64
3619.00,100.63
3618.00,100.60
3617.00,100.55
3616.00,100.50
3615.00,100.48
3614.00,100.48
3613.00,100.49
3612.00,100.47
3611.00,100.44
3610.00,100.42
3609.00,100.44
3608.00,100.49
3607.00,100.55
3606.00,100.58
3605.00,100.61
3604.00,100.62
3603.00,100.64
3602.00,100.67
3601.00,100.68
3600.00,100.69
3599.00,100.68
3598.00,100.67
3597.00,100.65
3596.00,100.64
3595.00,100.64
3594.00,100.64
3593.00,100.63
3592.00,100.60
3591.00,100.57
3590.00,100.54
3589.00,100.54
3588.00,100.57
3587.00,100.60
3586.00,100.60
3585.00,100.60
3584.00,100.61
3583.00,100.62
3582.00,100.65
3581.00,100.68
3580.00,100.70
3579.00,100.71
3578.00,100.72
3577.00,100.72
3576.00,100.72
3575.00,100.72
3574.00,100.71
3573.00,100.71
3572.00,100.69
3571.00,100.66
3570.00,100.61
3569.00,100.58
3568.00,100.56
3567.00,100.57
3566.00,100.58
3565.00,100.58
3564.00,100.59
3563.00,100.60
3562.00,100.62
3561.00,100.66
3560.00,100.68
3559.00,100.70
3558.00,100.71
3557.00,100.71
3556.00,100.71
3555.00,100.71
3554.00,100.71
3553.00,100.71
3552.00,100.70
3551.00,100.68
3550.00,100.65
3549.00,100.62
3548.00,100.61
3547.00,100.61
3546.00,100.63
3545.00,100.64
3544.00,100.66
3543.00,100.67
3542.00,100.68
3541.00,100.69
3540.00,100.71
3539.00,100.71
3538.00,100.72
3537.00,100.72
3536.00,100.72
3535.00,100.72
3534.00,100.71
3533.00,100.71
3532.00,100.71
3531.00,100.72
3530.00,100.72
3529.00,100.72
3528.00,100.70
3527.00,100.68
3526.00,100.66
3525.00,100.66
3524.00,100.66
3523.00,100.68
3522.00,100.69
3521.00,100.70
3520.00,100.71
3519.00,100.72
3518.00,100.72
3517.00,100.73
3516.00,100.72
3515.00,100.72
3514.00,100.72
3513.00,100.71
3512.00,100.71
3511.00,100.70
3510.00,100.70
3509.00,100.70
3508.00,100.70
3507.00,100.69
3506.00,100.68
3505.00,100.69
3504.00,100.69
3503.00,100.69
3502.00,100.69
3501.00,100.69
3500.00,100.68
3499.00,100.69
3498.00,100.69
3497.00,100.71
3496.00,100.71
3495.00,100.71
3494.00,100.71
3493.00,100.70
3492.00,100.69
3491.00,100.69
3490.00,100.70
3489.00,100.70
3488.00,100.70
3487.00,100.70
3486.00,100.70
3485.00,100.69
3484.00,100.69
3483.00,100.70
3482.00,100.70
3481.00,100.70
3480.00,100.70
3479.00,100.70
3478.00,100.70
3477.00,100.71
3476.00,100.72
3475.00,100.72
3474.00,100.71
3473.00,100.70
3472.00,100.70
3471.00,100.69
3470.00,100.69
3469.00,100.69
3468.00,100.69
3467.00,100.69
3466.00,100.69
3465.00,100.70
3464.00,100.70
3463.00,100.71
3462.00,100.71
3461.00,100.71
3460.00,100.70
3459.00,100.70
3458.00,100.70
3457.00,100.69
3456.00,100.70
3455.00,100.70
3454.00,100.70
3453.00,100.69
3452.00,100.69
3451.00,100.69
3450.00,100.68
3449.00,100.69
3448.00,100.69
3447.00,100.69
3446.00,100.69
3445.00,100.68
3444.00,100.68
3443.00,100.68
3442.00,100.69
3441.00,100.69
3440.00,100.69
3439.00,100.68
3438.00,100.68
3437.00,100.68
3436.00,100.68
3435.00,100.69
3434.00,100.69
3433.00,100.70
3432.00,100.70
3431.00,100.69
3430.00,100.69
3429.00,100.68
3428.00,100.68
3427.00,100.68
3426.00,100.68
3425.00,100.69
3424.00,100.69
3423.00,100.69
3422.00,100.69
3421.00,100.68
3420.00,100.67
3419.00,100.66
3418.00,100.66
3417.00,100.66
3416.00,100.67
3415.00,100.67
3414.00,100.68
3413.00,100.68
3412.00,100.68
3411.00,100.68
3410.00,100.68
3409.00,100.68
3408.00,100.68
3407.00,100.68
3406.00,100.68
3405.00,100.68
3404.00,100.68
3403.00,100.68
3402.00,100.67
3401.00,100.67
3400.00,100.67
3399.00,100.67
3398.00,100.67
3397.00,100.66
3396.00,100.66
3395.00,100.66
3394.00,100.66
3393.00,100.67
3392.00,100.67
3391.00,100.67
3390.00,100.67
3389.00,100.67
3388.00,100.67
3387.00,100.68
3386.00,100.68
3385.00,100.67
3384.00,100.66
3383.00,100.66
3382.00,100.65
3381.00,100.65
3380.00,100.66
3379.00,100.66
3378.00,100.67
3377.00,100.66
3376.00,100.66
3375.00,100.65
3374.00,100.65
3373.00,100.65
3372.00,100.65
3371.00,100.65
3370.00,100.65
3369.00,100.66
3368.00,100.66
3367.00,100.67
3366.00,100.67
3365.00,100.67
3364.00,100.67
3363.00,100.66
3362.00,100.66
3361.00,100.66
3360.00,100.66
3359.00,100.67
3358.00,100.67
3357.00,100.67
3356.00,100.67
3355.00,100.66
3354.00,100.66
3353.00,100.66
3352.00,100.66
3351.00,100.65
3350.00,100.65
3349.00,100.65
3348.00,100.65
3347.00,100.66
3346.00,100.66
3345.00,100.66
3344.00,100.66
3343.00,100.66
3342.00,100.66
3341.00,100.66
3340.00,100.66
3339.00,100.66
3338.00,100.66
3337.00,100.66
3336.00,100.66
3335.00,100.65
3334.00,100.65
3333.00,100.66
3332.00,100.66
3331.00,100.67
3330.00,100.67
3329.00,100.67
3328.00,100.66
3327.00,100.66
3326.00,100.66
3325.00,100.66
3324.00,100.65
3323.00,100.65
3322.00,100.65
3321.00,100.66
3320.00,100.66
3319.00,100.66
3318.00,100.66
3317.00,100.66
3316.00,100.65
3315.00,100.65
3314.00,100.65
3313.00,100.66
3312.00,100.65
3311.00,100.65
3310.00,100.65
3309.00,100.65
3308.00,100.64
3307.00,100.64
3306.00,100.64
3305.00,100.64
3304.00,100.65
3303.00,100.65
3302.00,100.65
3301.00,100.65
3300.00,100.65
3299.00,100.64
3298.00,100.64
3297.00,100.64
3296.00,100.64
3295.00,100.64
3294.00,100.65
3293.00,100.65
3292.00,100.66
3291.00,100.66
3290.00,100.66
3289.00,100.65
3288.00,100.66
3287.00,100.66
3286.00,100.66
3285.00,100.66
3284.00,100.66
3283.00,100.65
3282.00,100.65
3281.00,100.65
3280.00,100.65
3279.00,100.65
3278.00,100.65
3277.00,100.65
3276.00,100.65
3275.00,100.65
3274.00,100.65
3273.00,100.65
3272.00,100.64
3271.00,100.64
3270.00,100.64
3269.00,100.64
3268.00,100.64
3267.00,100.65
3266.00,100.65
3265.00,100.66
3264.00,100.66
3263.00,100.66
3262.00,100.66
3261.00,100.65
3260.00,100.64
3259.00,100.64
3258.00,100.64
3257.00,100.63
3256.00,100.63
3255.00,100.64
3254.00,100.65
3253.00,100.65
3252.00,100.65
3251.00,100.65
3250.00,100.64
3249.00,100.64
3248.00,100.64
3247.00,100.65
3246.00,100.65
3245.00,100.66
3244.00,100.66
3243.00,100.66
3242.00,100.66
3241.00,100.66
3240.00,100.65
3239.00,100.65
3238.00,100.64
3237.00,100.64
3236.00,100.65
3235.00,100.65
3234.00,100.64
3233.00,100.64
3232.00,100.64
3231.00,100.65
3230.00,100.65
3229.00,100.65
3228.00,100.65
3227.00,100.65
3226.00,100.65
3225.00,100.64
3224.00,100.64
3223.00,100.64
3222.00,100.64
3221.00,100.64
3220.00,100.64
3219.00,100.64
3218.00,100.64
3217.00,100.64
3216.00,100.65
3215.00,100.65
3214.00,100.65
3213.00,100.66
3212.00,100.66
3211.00,100.66
3210.00,100.67
3209.00,100.67
3208.00,100.66
3207.00,100.66
3206.00,100.65
3205.00,100.65
3204.00,100.65
3203.00,100.65
3202.00,100.65
3201.00,100.66
3200.00,100.66
3199.00,100.66
3198.00,100.66
3197.00,100.66
3196.00,100.66
3195.00,100.66
3194.00,100.66
3193.00,100.66
3192.00,100.66
3191.00,100.66
3190.00,100.66
3189.00,100.66
3188.00,100.66
3187.00,100.66
3186.00,100.66
3185.00,100.66
3184.00,100.66
3183.00,100.66
3182.00,100.67
3181.00,100.67
3180.00,100.67
3179.00,100.67
3178.00,100.67
3177.00,100.66
3176.00,100.66
3175.00,100.66
3174.00,100.67
3173.00,100.67
3172.00,100.67
3171.00,100.67
3170.00,100.68
3169.00,100.68
3168.00,100.68
3167.00,100.68
3166.00,100.68
3165.00,100.68
3164.00,100.67
3163.00,100.67
3162.00,100.67
3161.00,100.67
3160.00,100.67
3159.00,100.67
3158.00,100.67
3157.00,100.67
3156.00,100.67
3155.00,100.67
3154.00,100.68
3153.00,100.68
3152.00,100.68
3151.00,100.68
3150.00,100.68
3149.00,100.68
3148.00,100.68
3147.00,100.68
3146.00,100.68
3145.00,100.68
3144.00,100.68
3143.00,100.68
3142.00,100.69
3141.00,100.68
3140.00,100.68
3139.00,100.67
3138.00,100.67
3137.00,100.68
3136.00,100.68
3135.00,100.68
3134.00,100.68
3133.00,100.68
3132.00,100.68
3131.00,100.68
3130.00,100.68
3129.00,100.69
3128.00,100.69
3127.00,100.69
3126.00,100.69
3125.00,100.69
3124.00,100.68
3123.00,100.68
3122.00,100.67
3121.00,100.67
3120.00,100.67
3119.00,100.68
3118.00,100.68
3117.00,100.69
3116.00,100.69
3115.00,100.69
3114.00,100.69
3113.00,100.69
3112.00,100.70
3111.00,100.70
3110.00,100.70
3109.00,100.70
3108.00,100.70
3107.00,100.70
3106.00,100.70
3105.00,100.70
3104.00,100.70
3103.00,100.70
3102.00,100.70
3101.00,100.70
3100.00,100.70
3099.00,100.69
3098.00,100.69
3097.00,100.69
3096.00,100.70
3095.00,100.70
3094.00,100.71
3093.00,100.71
3092.00,100.70
3091.00,100.70
3090.00,100.71
3089.00,100.71
3088.00,100.72
3087.00,100.72
3086.00,100.72
3085.00,100.72
3084.00,100.72
3083.00,100.72
3082.00,100.71
3081.00,100.71
3080.00,100.71
3079.00,100.70
3078.00,100.71
3077.00,100.71
3076.00,100.71
3075.00,100.71
3074.00,100.72
3073.00,100.72
3072.00,100.72
3071.00,100.72
3070.00,100.72
3069.00,100.71
3068.00,100.71
3067.00,100.71
3066.00,100.72
3065.00,100.72
3064.00,100.72
3063.00,100.73
3062.00,100.73
3061.00,100.74
3060.00,100.74
3059.00,100.74
3058.00,100.73
3057.00,100.73
3056.00,100.73
3055.00,100.73
3054.00,100.73
3053.00,100.73
3052.00,100.74
3051.00,100.74
3050.00,100.74
3049.00,100.74
3048.00,100.74
3047.00,100.75
3046.00,100.74
3045.00,100.74
3044.00,100.74
3043.00,100.74
3042.00,100.74
3041.00,100.75
3040.00,100.75
3039.00,100.75
3038.00,100.75
3037.00,100.74
3036.00,100.74
3035.00,100.74
3034.00,100.74
3033.00,100.74
3032.00,100.74
3031.00,100.75
3030.00,100.75
3029.00,100.75
3028.00,100.75
3027.00,100.75
3026.00,100.75
3025.00,100.75
3024.00,100.76
3023.00,100.76
3022.00,100.76
3021.00,100.76
3020.00,100.75
3019.00,100.75
3018.00,100.74
3017.00,100.74
3016.00,100.74
3015.00,100.74
3014.00,100.74
3013.00,100.74
3012.00,100.74
3011.00,100.74
3010.00,100.74
3009.00,100.75
3008.00,100.75
3007.00,100.76
3006.00,100.76
3005.00,100.76
3004.00,100.76
3003.00,100.76
3002.00,100.76
3001.00,100.76
3000.00,100.77
2999.00,100.77
2998.00,100.77
2997.00,100.77
2996.00,100.76
2995.00,100.76
2994.00,100.76
2993.00,100.75
2992.00,100.75
2991.00,100.75
2990.00,100.76
2989.00,100.76
2988.00,100.76
2987.00,100.76
2986.00,100.75
2985.00,100.75
2984.00,100.75
2983.00,100.75
2982.00,100.75
2981.00,100.74
2980.00,100.75
2979.00,100.75
2978.00,100.76
2977.00,100.76
2976.00,100.76
2975.00,100.76
2974.00,100.75
2973.00,100.75
2972.00,100.75
2971.00,100.75
2970.00,100.76
2969.00,100.76
2968.00,100.77
2967.00,100.77
2966.00,100.77
2965.00,100.77
2964.00,100.77
2963.00,100.77
2962.00,100.77
2961.00,100.77
2960.00,100.77
2959.00,100.77
2958.00,100.77
2957.00,100.77
2956.00,100.77
2955.00,100.77
2954.00,100.77
2953.00,100.77
2952.00,100.77
2951.00,100.78
2950.00,100.78
2949.00,100.79
2948.00,100.78
2947.00,100.78
2946.00,100.79
2945.00,100.79
2944.00,100.80
2943.00,100.80
2942.00,100.79
2941.00,100.79
2940.00,100.78
2939.00,100.78
2938.00,100.78
2937.00,100.79
2936.00,100.80
2935.00,100.80
2934.00,100.80
2933.00,100.79
2932.00,100.78
2931.00,100.78
2930.00,100.77
2929.00,100.77
2928.00,100.78
2927.00,100.78
2926.00,100.79
2925.00,100.79
2924.00,100.79
2923.00,100.80
2922.00,100.79
2921.00,100.79
2920.00,100.79
2919.00,100.78
2918.00,100.78
2917.00,100.78
2916.00,100.79
2915.00,100.79
2914.00,100.80
2913.00,100.80
2912.00,100.80
2911.00,100.80
2910.00,100.80
2909.00,100.80
2908.00,100.80
2907.00,100.80
2906.00,100.79
2905.00,100.79
2904.00,100.79
2903.00,100.79
2902.00,100.80
2901.00,100.80
2900.00,100.80
2899.00,100.79
2898.00,100.79
2897.00,100.80
2896.00,100.80
2895.00,100.81
2894.00,100.82
2893.00,100.82
2892.00,100.82
2891.00,100.82
2890.00,100.82
2889.00,100.81
2888.00,100.81
2887.00,100.81
2886.00,100.81
2885.00,100.81
2884.00,100.81
2883.00,100.81
2882.00,100.81
2881.00,100.81
2880.00,100.81
2879.00,100.82
2878.00,100.82
2877.00,100.83
2876.00,100.83
2875.00,100.83
2874.00,100.83
2873.00,100.83
2872.00,100.83
2871.00,100.83
2870.00,100.83
2869.00,100.83
2868.00,100.83
2867.00,100.83
2866.00,100.83
2865.00,100.84
2864.00,100.84
2863.00,100.84
2862.00,100.84
2861.00,100.83
2860.00,100.83
2859.00,100.84
2858.00,100.84
2857.00,100.84
2856.00,100.83
2855.00,100.83
2854.00,100.82
2853.00,100.82
2852.00,100.82
2851.00,100.82
2850.00,100.83
2849.00,100.83
2848.00,100.84
2847.00,100.84
2846.00,100.83
2845.00,100.83
2844.00,100.83
2843.00,100.83
2842.00,100.83
2841.00,100.83
2840.00,100.83
2839.00,100.83
2838.00,100.84
2837.00,100.84
2836.00,100.85
2835.00,100.85
2834.00,100.85
2833.00,100.85
2832.00,100.85
2831.00,100.86
2830.00,100.86
2829.00,100.86
2828.00,100.86
2827.00,100.85
2826.00,100.85
2825.00,100.85
2824.00,100.85
2823.00,100.85
2822.00,100.85
2821.00,100.85
2820.00,100.85
2819.00,100.85
2818.00,100.85
2817.00,100.85
2816.00,100.85
2815.00,100.85
2814.00,100.85
2813.00,100.85
2812.00,100.85
2811.00,100.85
2810.00,100.85
2809.00,100.85
2808.00,100.85
2807.00,100.85
2806.00,100.85
2805.00,100.85
2804.00,100.85
2803.00,100.86
2802.00,100.86
2801.00,100.86
2800.00,100.86
2799.00,100.86
2798.00,100.85
2797.00,100.85
2796.00,100.84
2795.00,100.84
2794.00,100.84
2793.00,100.85
2792.00,100.85
2791.00,100.86
2790.00,100.86
2789.00,100.86
2788.00,100.86
2787.00,100.86
2786.00,100.86
2785.00,100.86
2784.00,100.86
2783.00,100.86
2782.00,100.86
2781.00,100.86
2780.00,100.85
2779.00,100.85
2778.00,100.85
2777.00,100.85
2776.00,100.85
2775.00,100.85
2774.00,100.85
2773.00,100.86
2772.00,100.86
2771.00,100.86
2770.00,100.86
2769.00,100.86
2768.00,100.86
2767.00,100.86
2766.00,100.86
2765.00,100.85
2764.00,100.85
2763.00,100.85
2762.00,100.85
2761.00,100.86
2760.00,100.85
2759.00,100.85
2758.00,100.85
2757.00,100.85
2756.00,100.85
2755.00,100.85
2754.00,100.85
2753.00,100.85
2752.00,100.85
2751.00,100.85
2750.00,100.85
2749.00,100.85
2748.00,100.84
2747.00,100.84
2746.00,100.84
2745.00,100.84
2744.00,100.85
2743.00,100.85
2742.00,100.86
2741.00,100.86
2740.00,100.86
2739.00,100.86
2738.00,100.85
2737.00,100.85
2736.00,100.85
2735.00,100.85
2734.00,100.85
2733.00,100.86
2732.00,100.86
2731.00,100.86
2730.00,100.85
2729.00,100.85
2728.00,100.85
2727.00,100.85
2726.00,100.85
2725.00,100.85
2724.00,100.85
2723.00,100.85
2722.00,100.84
2721.00,100.84
2720.00,100.84
2719.00,100.84
2718.00,100.84
2717.00,100.85
2716.00,100.85
2715.00,100.85
2714.00,100.85
2713.00,100.85
2712.00,100.85
2711.00,100.85
2710.00,100.84
2709.00,100.84
2708.00,100.84
2707.00,100.84
2706.00,100.84
2705.00,100.84
2704.00,100.84
2703.00,100.84
2702.00,100.85
2701.00,100.85
2700.00,100.85
2699.00,100.84
2698.00,100.84
2697.00,100.84
2696.00,100.84
2695.00,100.84
2694.00,100.84
2693.00,100.84
2692.00,100.85
2691.00,100.84
2690.00,100.84
2689.00,100.83
2688.00,100.83
2687.00,100.83
2686.00,100.83
2685.00,100.84
2684.00,100.84
2683.00,100.83
2682.00,100.83
2681.00,100.83
2680.00,100.83
2679.00,100.83
2678.00,100.84
2677.00,100.84
2676.00,100.84
2675.00,100.84
2674.00,100.84
2673.00,100.84
2672.00,100.84
2671.00,100.84
2670.00,100.84
2669.00,100.84
2668.00,100.83
2667.00,100.83
2666.00,100.83
2665.00,100.83
2664.00,100.83
2663.00,100.83
2662.00,100.83
2661.00,100.82
2660.00,100.82
2659.00,100.82
2658.00,100.82
2657.00,100.82
2656.00,100.82
2655.00,100.82
2654.00,100.82
2653.00,100.83
2652.00,100.83
2651.00,100.83
2650.00,100.83
2649.00,100.82
2648.00,100.82
2647.00,100.83
2646.00,100.83
2645.00,100.84
2644.00,100.84
2643.00,100.84
2642.00,100.83
2641.00,100.83
2640.00,100.83
2639.00,100.83
2638.00,100.82
2637.00,100.82
2636.00,100.82
2635.00,100.82
2634.00,100.82
2633.00,100.82
2632.00,100.82
2631.00,100.82
2630.00,100.82
2629.00,100.82
2628.00,100.82
2627.00,100.82
2626.00,100.82
2625.00,100.82
2624.00,100.81
2623.00,100.81
2622.00,100.81
2621.00,100.81
2620.00,100.81
2619.00,100.81
2618.00,100.82
2617.00,100.82
2616.00,100.82
2615.00,100.81
2614.00,100.81
2613.00,100.81
2612.00,100.81
2611.00,100.81
2610.00,100.81
2609.00,100.81
2608.00,100.80
2607.00,100.80
2606.00,100.81
2605.00,100.81
2604.00,100.81
2603.00,100.81
2602.00,100.81
2601.00,100.81
2600.00,100.81
2599.00,100.81
2598.00,100.82
2597.00,100.82
2596.00,100.82
2595.00,100.82
2594.00,100.82
2593.00,100.82
2592.00,100.82
2591.00,100.81
2590.00,100.81
2589.00,100.80
2588.00,100.79
2587.00,100.79
2586.00,100.79
2585.00,100.79
2584.00,100.80
2583.00,100.80
2582.00,100.80
2581.00,100.80
2580.00,100.80
2579.00,100.80
2578.00,100.80
2577.00,100.80
2576.00,100.80
2575.00,100.80
2574.00,100.80
2573.00,100.80
2572.00,100.80
2571.00,100.79
2570.00,100.79
2569.00,100.78
2568.00,100.78
2567.00,100.79
2566.00,100.80
2565.00,100.80
2564.00,100.80
2563.00,100.80
2562.00,100.79
2561.00,100.79
2560.00,100.79
2559.00,100.79
2558.00,100.78
2557.00,100.78
2556.00,100.79
2555.00,100.79
2554.00,100.79
2553.00,100.80
2552.00,100.80
2551.00,100.80
2550.00,100.80
2549.00,100.80
2548.00,100.80
2547.00,100.79
2546.00,100.79
2545.00,100.79
2544.00,100.79
2543.00,100.79
2542.00,100.79
2541.00,100.80
2540.00,100.80
2539.00,100.80
2538.00,100.79
2537.00,100.78
2536.00,100.77
2535.00,100.76
2534.00,100.77
2533.00,100.77
2532.00,100.77
2531.00,100.78
2530.00,100.78
2529.00,100.78
2528.00,100.79
2527.00,100.79
2526.00,100.79
2525.00,100.79
2524.00,100.80
2523.00,100.80
2522.00,100.80
2521.00,100.79
2520.00,100.79
2519.00,100.79
2518.00,100.79
2517.00,100.79
2516.00,100.79
2515.00,100.79
2514.00,100.80
2513.00,100.80
2512.00,100.80
2511.00,100.80
2510.00,100.80
2509.00,100.80
2508.00,100.79
2507.00,100.79
2506.00,100.79
2505.00,100.79
2504.00,100.78
2503.00,100.78
2502.00,100.78
2501.00,100.78
2500.00,100.78
2499.00,100.77
2498.00,100.77
2497.00,100.77
2496.00,100.77
2495.00,100.78
2494.00,100.78
2493.00,100.78
2492.00,100.78
2491.00,100.78
2490.00,100.78
2489.00,100.79
2488.00,100.79
2487.00,100.79
2486.00,100.78
2485.00,100.78
2484.00,100.78
2483.00,100.78
2482.00,100.78
2481.00,100.78
2480.00,100.79
2479.00,100.79
2478.00,100.79
2477.00,100.78
2476.00,100.78
2475.00,100.78
2474.00,100.78
2473.00,100.78
2472.00,100.78
2471.00,100.78
2470.00,100.77
2469.00,100.77
2468.00,100.78
2467.00,100.78
2466.00,100.78
2465.00,100.78
2464.00,100.79
2463.00,100.79
2462.00,100.78
2461.00,100.78
2460.00,100.78
2459.00,100.78
2458.00,100.78
2457.00,100.78
2456.00,100.78
2455.00,100.77
2454.00,100.78
2453.00,100.78
2452.00,100.78
2451.00,100.77
2450.00,100.77
2449.00,100.77
2448.00,100.78
2447.00,100.78
2446.00,100.79
2445.00,100.79
2444.00,100.78
2443.00,100.78
2442.00,100.78
2441.00,100.78
2440.00,100.78
2439.00,100.78
2438.00,100.78
2437.00,100.78
2436.00,100.78
2435.00,100.78
2434.00,100.78
2433.00,100.78
2432.00,100.78
2431.00,100.78
2430.00,100.78
2429.00,100.78
2428.00,100.78
2427.00,100.78
2426.00,100.77
2425.00,100.77
2424.00,100.77
2423.00,100.78
2422.00,100.78
2421.00,100.79
2420.00,100.79
2419.00,100.79
2418.00,100.79
2417.00,100.78
2416.00,100.78
2415.00,100.78
2414.00,100.77
2413.00,100.77
2412.00,100.77
2411.00,100.77
2410.00,100.78
2409.00,100.79
2408.00,100.79
2407.00,100.80
2406.00,100.79
2405.00,100.79
2404.00,100.79
2403.00,100.79
2402.00,100.79
2401.00,100.78
2400.00,100.78
2399.00,100.78
2398.00,100.78
2397.00,100.78
2396.00,100.78
2395.00,100.78
2394.00,100.78
2393.00,100.78
2392.00,100.78
2391.00,100.79
2390.00,100.80
2389.00,100.81
2388.00,100.81
2387.00,100.81
2386.00,100.81
2385.00,100.81
2384.00,100.82
2383.00,100.83
2382.00,100.85
2381.00,100.86
2380.00,100.88
2379.00,100.89
2378.00,100.89
2377.00,100.90
2376.00,100.90
2375.00,100.91
2374.00,100.91
2373.00,100.91
2372.00,100.91
2371.00,100.91
2370.00,100.89
2369.00,100.88
2368.00,100.86
2367.00,100.86
2366.00,100.87
2365.00,100.90
2364.00,100.94
2363.00,100.97
2362.00,100.99
2361.00,101.00
2360.00,100.99
2359.00,100.97
2358.00,100.96
2357.00,100.97
2356.00,100.99
2355.00,100.99
2354.00,101.00
2353.00,101.01
2352.00,101.03
2351.00,101.02
2350.00,101.01
2349.00,101.01
2348.00,101.01
2347.00,101.02
2346.00,101.03
2345.00,101.03
2344.00,101.03
2343.00,101.03
2342.00,101.04
2341.00,101.06
2340.00,101.07
2339.00,101.07
2338.00,101.06
2337.00,101.05
2336.00,101.06
2335.00,101.07
2334.00,101.09
2333.00,101.10
2332.00,101.11
2331.00,101.10
2330.00,101.08
2329.00,101.05
2328.00,101.03
2327.00,101.02
2326.00,101.02
2325.00,101.03
2324.00,101.05
2323.00,101.06
2322.00,101.06
2321.00,101.05
2320.00,101.02
2319.00,100.98
2318.00,100.95
2317.00,100.94
2316.00,100.94
2315.00,100.95
2314.00,100.95
2313.00,100.94
2312.00,100.93
2311.00,100.92
2310.00,100.91
2309.00,100.90
2308.00,100.90
2307.00,100.89
2306.00,100.89
2305.00,100.88
2304.00,100.87
2303.00,100.87
2302.00,100.87
2301.00,100.87
2300.00,100.87
2299.00,100.87
2298.00,100.86
2297.00,100.86
2296.00,100.85
2295.00,100.85
2294.00,100.85
2293.00,100.85
2292.00,100.86
2291.00,100.85
2290.00,100.85
2289.00,100.84
2288.00,100.84
2287.00,100.84
2286.00,100.84
2285.00,100.84
2284.00,100.84
2283.00,100.84
2282.00,100.84
2281.00,100.84
2280.00,100.84
2279.00,100.84
2278.00,100.84
2277.00,100.84
2276.00,100.84
2275.00,100.84
2274.00,100.84
2273.00,100.84
2272.00,100.85
2271.00,100.85
2270.00,100.85
2269.00,100.85
2268.00,100.86
2267.00,100.86
2266.00,100.86
2265.00,100.87
2264.00,100.87
2263.00,100.87
2262.00,100.87
2261.00,100.87
2260.00,100.86
2259.00,100.85
2258.00,100.84
2257.00,100.83
2256.00,100.83
2255.00,100.83
2254.00,100.84
2253.00,100.85
2252.00,100.86
2251.00,100.86
2250.00,100.85
2249.00,100.85
2248.00,100.86
2247.00,100.86
2246.00,100.85
2245.00,100.85
2244.00,100.85
2243.00,100.85
2242.00,100.85
2241.00,100.86
2240.00,100.86
2239.00,100.85
2238.00,100.85
2237.00,100.85
2236.00,100.85
2235.00,100.86
2234.00,100.86
2233.00,100.86
2232.00,100.86
2231.00,100.86
2230.00,100.86
2229.00,100.87
2228.00,100.88
2227.00,100.87
2226.00,100.86
2225.00,100.84
2224.00,100.83
2223.00,100.82
2222.00,100.81
2221.00,100.82
2220.00,100.84
2219.00,100.86
2218.00,100.87
2217.00,100.87
2216.00,100.86
2215.00,100.86
2214.00,100.85
2213.00,100.86
2212.00,100.86
2211.00,100.86
2210.00,100.86
2209.00,100.86
2208.00,100.88
2207.00,100.88
2206.00,100.88
2205.00,100.87
2204.00,100.87
2203.00,100.87
2202.00,100.87
2201.00,100.87
2200.00,100.87
2199.00,100.87
2198.00,100.86
2197.00,100.86
2196.00,100.87
2195.00,100.87
2194.00,100.87
2193.00,100.86
2192.00,100.87
2191.00,100.87
2190.00,100.88
2189.00,100.88
2188.00,100.88
2187.00,100.89
2186.00,100.89
2185.00,100.89
2184.00,100.88
2183.00,100.86
2182.00,100.85
2181.00,100.86
2180.00,100.86
2179.00,100.87
2178.00,100.87
2177.00,100.86
2176.00,100.86
2175.00,100.86
2174.00,100.87
2173.00,100.88
2172.00,100.89
2171.00,100.89
2170.00,100.89
2169.00,100.88
2168.00,100.87
2167.00,100.86
2166.00,100.85
2165.00,100.86
2164.00,100.87
2163.00,100.88
2162.00,100.89
2161.00,100.89
2160.00,100.89
2159.00,100.89
2158.00,100.87
2157.00,100.86
2156.00,100.86
2155.00,100.87
2154.00,100.88
2153.00,100.89
2152.00,100.89
2151.00,100.89
2150.00,100.89
2149.00,100.89
2148.00,100.88
2147.00,100.88
2146.00,100.88
2145.00,100.88
2144.00,100.89
2143.00,100.90
2142.00,100.90
2141.00,100.90
2140.00,100.91
2139.00,100.92
2138.00,100.91
2137.00,100.89
2136.00,100.87
2135.00,100.86
2134.00,100.86
2133.00,100.87
2132.00,100.87
2131.00,100.87
2130.00,100.86
2129.00,100.86
2128.00,100.86
2127.00,100.88
2126.00,100.90
2125.00,100.92
2124.00,100.93
2123.00,100.92
2122.00,100.90
2121.00,100.89
2120.00,100.88
2119.00,100.89
2118.00,100.89
2117.00,100.89
2116.00,100.88
2115.00,100.87
2114.00,100.87
2113.00,100.86
2112.00,100.87
2111.00,100.88
2110.00,100.89
2109.00,100.89
2108.00,100.89
2107.00,100.89
2106.00,100.89
2105.00,100.89
2104.00,100.89
2103.00,100.88
2102.00,100.87
2101.00,100.87
2100.00,100.86
2099.00,100.86
2098.00,100.87
2097.00,100.87
2096.00,100.88
2095.00,100.88
2094.00,100.88
2093.00,100.87
2092.00,100.87
2091.00,100.87
2090.00,100.87
2089.00,100.87
2088.00,100.87
2087.00,100.87
2086.00,100.87
2085.00,100.88
2084.00,100.89
2083.00,100.90
2082.00,100.89
2081.00,100.88
2080.00,100.87
2079.00,100.87
2078.00,100.88
2077.00,100.89
2076.00,100.90
2075.00,100.91
2074.00,100.91
2073.00,100.92
2072.00,100.93
2071.00,100.93
2070.00,100.92
2069.00,100.91
2068.00,100.91
2067.00,100.91
2066.00,100.93
2065.00,100.94
2064.00,100.94
2063.00,100.92
2062.00,100.89
2061.00,100.87
2060.00,100.86
2059.00,100.87
2058.00,100.89
2057.00,100.90
2056.00,100.90
2055.00,100.89
2054.00,100.88
2053.00,100.88
2052.00,100.89
2051.00,100.91
2050.00,100.91
2049.00,100.91
2048.00,100.92
2047.00,100.91
2046.00,100.91
2045.00,100.90
2044.00,100.90
2043.00,100.90
2042.00,100.90
2041.00,100.91
2040.00,100.93
2039.00,100.93
2038.00,100.93
2037.00,100.92
2036.00,100.92
2035.00,100.91
2034.00,100.90
2033.00,100.91
2032.00,100.91
2031.00,100.92
2030.00,100.90
2029.00,100.89
2028.00,100.87
2027.00,100.85
2026.00,100.84
2025.00,100.85
2024.00,100.88
2023.00,100.90
2022.00,100.92
2021.00,100.92
2020.00,100.93
2019.00,100.92
2018.00,100.91
2017.00,100.90
2016.00,100.87
2015.00,100.84
2014.00,100.82
2013.00,100.83
2012.00,100.86
2011.00,100.88
2010.00,100.89
2009.00,100.90
2008.00,100.91
2007.00,100.90
2006.00,100.88
2005.00,100.88
2004.00,100.88
2003.00,100.90
2002.00,100.90
2001.00,100.90
2000.00,100.89
1999.00,100.87
1998.00,100.86
1997.00,100.85
1996.00,100.85
1995.00,100.85
1994.00,100.86
1993.00,100.88
1992.00,100.91
1991.00,100.93
1990.00,100.92
1989.00,100.90
1988.00,100.88
1987.00,100.87
1986.00,100.87
1985.00,100.88
1984.00,100.90
1983.00,100.91
1982.00,100.90
1981.00,100.89
1980.00,100.88
1979.00,100.88
1978.00,100.89
1977.00,100.91
1976.00,100.92
1975.00,100.91
1974.00,100.90
1973.00,100.90
1972.00,100.92
1971.00,100.92
1970.00,100.91
1969.00,100.90
1968.00,100.90
1967.00,100.91
1966.00,100.92
1965.00,100.93
1964.00,100.93
1963.00,100.92
1962.00,100.91
1961.00,100.89
1960.00,100.87
1959.00,100.86
1958.00,100.85
1957.00,100.86
1956.00,100.87
1955.00,100.88
1954.00,100.89
1953.00,100.89
1952.00,100.89
1951.00,100.89
1950.00,100.88
1949.00,100.87
1948.00,100.88
1947.00,100.88
1946.00,100.89
1945.00,100.89
1944.00,100.90
1943.00,100.90
1942.00,100.91
1941.00,100.91
1940.00,100.90
1939.00,100.89
1938.00,100.88
1937.00,100.88
1936.00,100.89
1935.00,100.89
1934.00,100.89
1933.00,100.89
1932.00,100.89
1931.00,100.88
1930.00,100.87
1929.00,100.87
1928.00,100.87
1927.00,100.86
1926.00,100.86
1925.00,100.87
1924.00,100.88
1923.00,100.89
1922.00,100.87
1921.00,100.85
1920.00,100.83
1919.00,100.83
1918.00,100.83
1917.00,100.85
1916.00,100.86
1915.00,100.87
1914.00,100.88
1913.00,100.88
1912.00,100.89
1911.00,100.89
1910.00,100.90
1909.00,100.91
1908.00,100.91
1907.00,100.89
1906.00,100.87
1905.00,100.87
1904.00,100.88
1903.00,100.88
1902.00,100.88
1901.00,100.89
1900.00,100.90
1899.00,100.89
1898.00,100.88
1897.00,100.88
1896.00,100.89
1895.00,100.89
1894.00,100.88
1893.00,100.87
1892.00,100.88
1891.00,100.89
1890.00,100.89
1889.00,100.90
1888.00,100.89
1887.00,100.87
1886.00,100.86
1885.00,100.86
1884.00,100.87
1883.00,100.87
1882.00,100.86
1881.00,100.87
1880.00,100.89
1879.00,100.88
1878.00,100.87
1877.00,100.86
1876.00,100.86
1875.00,100.85
1874.00,100.84
1873.00,100.84
1872.00,100.83
1871.00,100.83
1870.00,100.83
1869.00,100.86
1868.00,100.89
1867.00,100.88
1866.00,100.85
1865.00,100.84
1864.00,100.84
1863.00,100.85
1862.00,100.84
1861.00,100.85
1860.00,100.86
1859.00,100.86
1858.00,100.86
1857.00,100.87
1856.00,100.88
1855.00,100.87
1854.00,100.86
1853.00,100.86
1852.00,100.85
1851.00,100.85
1850.00,100.84
1849.00,100.85
1848.00,100.85
1847.00,100.84
1846.00,100.83
1845.00,100.82
1844.00,100.83
1843.00,100.82
1842.00,100.81
1841.00,100.82
1840.00,100.83
1839.00,100.85
1838.00,100.86
1837.00,100.86
1836.00,100.86
1835.00,100.85
1834.00,100.83
1833.00,100.83
1832.00,100.84
1831.00,100.87
1830.00,100.89
1829.00,100.89
1828.00,100.86
1827.00,100.84
1826.00,100.83
1825.00,100.83
1824.00,100.84
1823.00,100.84
1822.00,100.83
1821.00,100.83
1820.00,100.84
1819.00,100.85
1818.00,100.85
1817.00,100.85
1816.00,100.85
1815.00,100.86
1814.00,100.85
1813.00,100.85
1812.00,100.87
1811.00,100.87
1810.00,100.85
1809.00,100.84
1808.00,100.83
1807.00,100.83
1806.00,100.82
1805.00,100.82
1804.00,100.83
1803.00,100.83
1802.00,100.81
1801.00,100.80
1800.00,100.81
1799.00,100.82
1798.00,100.81
1797.00,100.82
1796.00,100.82
1795.00,100.81
1794.00,100.77
1793.00,100.75
1792.00,100.76
1791.00,100.77
1790.00,100.77
1789.00,100.77
1788.00,100.78
1787.00,100.78
1786.00,100.78
1785.00,100.79
1784.00,100.81
1783.00,100.82
1782.00,100.83
1781.00,100.83
1780.00,100.82
1779.00,100.80
1778.00,100.78
1777.00,100.78
1776.00,100.78
1775.00,100.79
1774.00,100.80
1773.00,100.80
1772.00,100.79
1771.00,100.78
1770.00,100.75
1769.00,100.73
1768.00,100.74
1767.00,100.76
1766.00,100.78
1765.00,100.78
1764.00,100.79
1763.00,100.81
1762.00,100.83
1761.00,100.82
1760.00,100.80
1759.00,100.80
1758.00,100.79
1757.00,100.79
1756.00,100.77
1755.00,100.76
1754.00,100.73
1753.00,100.68
1752.00,100.64
1751.00,100.64
1750.00,100.68
1749.00,100.71
1748.00,100.73
1747.00,100.75
1746.00,100.77
1745.00,100.79
1744.00,100.80
1743.00,100.82
1742.00,100.83
1741.00,100.82
1740.00,100.81
1739.00,100.82
1738.00,100.81
1737.00,100.79
1736.00,100.74
1735.00,100.71
1734.00,100.70
1733.00,100.71
1732.00,100.73
1731.00,100.75
1730.00,100.78
1729.00,100.80
1728.00,100.81
1727.00,100.81
1726.00,100.83
1725.00,100.83
1724.00,100.82
1723.00,100.82
1722.00,100.81
1721.00,100.79
1720.00,100.77
1719.00,100.75
1718.00,100.70
1717.00,100.68
1716.00,100.69
1715.00,100.69
1714.00,100.69
1713.00,100.72
1712.00,100.74
1711.00,100.76
1710.00,100.77
1709.00,100.78
1708.00,100.80
1707.00,100.83
1706.00,100.84
1705.00,100.85
1704.00,100.85
1703.00,100.83
1702.00,100.78
1701.00,100.74
1700.00,100.74
1699.00,100.72
1698.00,100.67
1697.00,100.66
1696.00,100.72
1695.00,100.76
1694.00,100.75
1693.00,100.73
1692.00,100.74
1691.00,100.76
1690.00,100.76
1689.00,100.76
1688.00,100.75
1687.00,100.74
1686.00,100.72
1685.00,100.72
1684.00,100.73
1683.00,100.74
1682.00,100.75
1681.00,100.76
1680.00,100.77
1679.00,100.77
1678.00,100.78
1677.00,100.78
1676.00,100.77
1675.00,100.77
1674.00,100.77
1673.00,100.74
1672.00,100.72
1671.00,100.72
1670.00,100.75
1669.00,100.78
1668.00,100.79
1667.00,100.79
1666.00,100.79
1665.00,100.81
1664.00,100.82
1663.00,100.84
1662.00,100.84
1661.00,100.83
1660.00,100.80
1659.00,100.78
1658.00,100.78
1657.00,100.79
1656.00,100.80
1655.00,100.80
1654.00,100.83
1653.00,100.87
1652.00,100.88
1651.00,100.85
1650.00,100.79
1649.00,100.76
1648.00,100.76
1647.00,100.76
1646.00,100.75
1645.00,100.76
1644.00,100.76
1643.00,100.75
1642.00,100.73
1641.00,100.72
1640.00,100.72
1639.00,100.71
1638.00,100.71
1637.00,100.72
1636.00,100.74
1635.00,100.77
1634.00,100.79
1633.00,100.81
1632.00,100.80
1631.00,100.79
1630.00,100.79
1629.00,100.80
1628.00,100.80
1627.00,100.79
1626.00,100.78
1625.00,100.78
1624.00,100.77
1623.00,100.77
1622.00,100.79
1621.00,100.82
1620.00,100.84
1619.00,100.85
1618.00,100.88
1617.00,100.89
1616.00,100.86
1615.00,100.82
1614.00,100.80
1613.00,100.80
1612.00,100.79
1611.00,100.78
1610.00,100.79
1609.00,100.82
1608.00,100.83
1607.00,100.84
1606.00,100.86
1605.00,100.88
1604.00,100.88
1603.00,100.88
1602.00,100.89
1601.00,100.90
1600.00,100.88
1599.00,100.86
1598.00,100.86
1597.00,100.87
1596.00,100.87
1595.00,100.86
1594.00,100.86
1593.00,100.87
1592.00,100.87
1591.00,100.87
1590.00,100.88
1589.00,100.90
1588.00,100.89
1587.00,100.87
1586.00,100.87
1585.00,100.86
1584.00,100.85
1583.00,100.83
1582.00,100.83
1581.00,100.85
1580.00,100.85
1579.00,100.86
1578.00,100.89
1577.00,100.91
1576.00,100.89
1575.00,100.85
1574.00,100.84
1573.00,100.84
1572.00,100.84
1571.00,100.84
1570.00,100.85
1569.00,100.83
1568.00,100.78
1567.00,100.76
1566.00,100.76
1565.00,100.78
1564.00,100.79
1563.00,100.80
1562.00,100.84
1561.00,100.85
1560.00,100.79
1559.00,100.69
1558.00,100.69
1557.00,100.75
1556.00,100.73
1555.00,100.72
1554.00,100.71
1553.00,100.71
1552.00,100.70
1551.00,100.70
1550.00,100.71
1549.00,100.71
1548.00,100.69
1547.00,100.67
1546.00,100.66
1545.00,100.69
1544.00,100.73
1543.00,100.75
1542.00,100.73
1541.00,100.71
1540.00,100.69
1539.00,100.69
1538.00,100.71
1537.00,100.72
1536.00,100.71
1535.00,100.71
1534.00,100.72
1533.00,100.73
1532.00,100.75
1531.00,100.74
1530.00,100.73
1529.00,100.72
1528.00,100.74
1527.00,100.73
1526.00,100.72
1525.00,100.70
1524.00,100.71
1523.00,100.70
1522.00,100.69
1521.00,100.69
1520.00,100.71
1519.00,100.72
1518.00,100.72
1517.00,100.72
1516.00,100.71
1515.00,100.69
1514.00,100.68
1513.00,100.68
1512.00,100.70
1511.00,100.73
1510.00,100.74
1509.00,100.74
1508.00,100.74
1507.00,100.70
1506.00,100.63
1505.00,100.65
1504.00,100.71
1503.00,100.76
1502.00,100.79
1501.00,100.83
1500.00,100.87
1499.00,100.90
1498.00,100.85
1497.00,100.77
1496.00,100.75
1495.00,100.77
1494.00,100.73
1493.00,100.65
1492.00,100.58
1491.00,100.61
1490.00,100.71
1489.00,100.80
1488.00,100.86
1487.00,100.87
1486.00,100.86
1485.00,100.84
1484.00,100.84
1483.00,100.85
1482.00,100.85
1481.00,100.85
1480.00,100.84
1479.00,100.82
1478.00,100.79
1477.00,100.76
1476.00,100.75
1475.00,100.73
1474.00,100.68
1473.00,100.65
1472.00,100.68
1471.00,100.72
1470.00,100.74
1469.00,100.76
1468.00,100.79
1467.00,100.81
1466.00,100.80
1465.00,100.78
1464.00,100.76
1463.00,100.75
1462.00,100.75
1461.00,100.76
1460.00,100.80
1459.00,100.84
1458.00,100.82
1457.00,100.71
1456.00,100.65
1455.00,100.69
1454.00,100.73
1453.00,100.76
1452.00,100.78
1451.00,100.79
1450.00,100.78
1449.00,100.78
1448.00,100.82
1447.00,100.86
1446.00,100.88
1445.00,100.87
1444.00,100.86
1443.00,100.86
1442.00,100.86
1441.00,100.85
1440.00,100.84
1439.00,100.85
1438.00,100.85
1437.00,100.83
1436.00,100.82
1435.00,100.83
1434.00,100.83
1433.00,100.82
1432.00,100.83
1431.00,100.84
1430.00,100.85
1429.00,100.84
1428.00,100.83
1427.00,100.83
1426.00,100.84
1425.00,100.83
1424.00,100.82
1423.00,100.82
1422.00,100.84
1421.00,100.84
1420.00,100.84
1419.00,100.84
1418.00,100.83
1417.00,100.81
1416.00,100.80
1415.00,100.83
1414.00,100.87
1413.00,100.88
1412.00,100.88
1411.00,100.88
1410.00,100.89
1409.00,100.89
1408.00,100.89
1407.00,100.90
1406.00,100.90
1405.00,100.88
1404.00,100.85
1403.00,100.85
1402.00,100.85
1401.00,100.82
1400.00,100.79
1399.00,100.79
1398.00,100.80
1397.00,100.79
1396.00,100.80
1395.00,100.82
1394.00,100.85
1393.00,100.85
1392.00,100.84
1391.00,100.85
1390.00,100.86
1389.00,100.86
1388.00,100.86
1387.00,100.85
1386.00,100.86
1385.00,100.86
1384.00,100.86
1383.00,100.87
1382.00,100.88
1381.00,100.88
1380.00,100.87
1379.00,100.87
1378.00,100.86
1377.00,100.87
1376.00,100.87
1375.00,100.87
1374.00,100.88
1373.00,100.88
1372.00,100.87
1371.00,100.86
1370.00,100.87
1369.00,100.88
1368.00,100.88
1367.00,100.88
1366.00,100.88
1365.00,100.89
1364.00,100.89
1363.00,100.89
1362.00,100.88
1361.00,100.87
1360.00,100.87
1359.00,100.88
1358.00,100.89
1357.00,100.90
1356.00,100.90
1355.00,100.91
1354.00,100.91
1353.00,100.91
1352.00,100.91
1351.00,100.90
1350.00,100.91
1349.00,100.91
1348.00,100.91
1347.00,100.90
1346.00,100.89
1345.00,100.89
1344.00,100.89
1343.00,100.88
1342.00,100.88
1341.00,100.88
1340.00,100.89
1339.00,100.88
1338.00,100.88
1337.00,100.87
1336.00,100.87
1335.00,100.87
1334.00,100.87
1333.00,100.87
1332.00,100.87
1331.00,100.87
1330.00,100.88
1329.00,100.88
1328.00,100.88
1327.00,100.87
1326.00,100.87
1325.00,100.87
1324.00,100.87
1323.00,100.87
1322.00,100.87
1321.00,100.87
1320.00,100.87
1319.00,100.87
1318.00,100.87
1317.00,100.87
1316.00,100.86
1315.00,100.86
1314.00,100.86
1313.00,100.86
1312.00,100.86
1311.00,100.86
1310.00,100.86
1309.00,100.87
1308.00,100.87
1307.00,100.87
1306.00,100.87
1305.00,100.87
1304.00,100.87
1303.00,100.87
1302.00,100.87
1301.00,100.87
1300.00,100.87
1299.00,100.87
1298.00,100.88
1297.00,100.88
1296.00,100.87
1295.00,100.87
1294.00,100.87
1293.00,100.87
1292.00,100.88
1291.00,100.88
1290.00,100.89
1289.00,100.90
1288.00,100.89
1287.00,100.89
1286.00,100.89
1285.00,100.89
1284.00,100.90
1283.00,100.90
1282.00,100.91
1281.00,100.92
1280.00,100.92
1279.00,100.93
1278.00,100.93
1277.00,100.93
1276.00,100.92
1275.00,100.92
1274.00,100.91
1273.00,100.91
1272.00,100.91
1271.00,100.91
1270.00,100.91
1269.00,100.90
1268.00,100.90
1267.00,100.90
1266.00,100.90
1265.00,100.90
1264.00,100.89
1263.00,100.90
1262.00,100.90
1261.00,100.90
1260.00,100.90
1259.00,100.90
1258.00,100.90
1257.00,100.90
1256.00,100.90
1255.00,100.90
1254.00,100.91
1253.00,100.91
1252.00,100.92
1251.00,100.92
1250.00,100.92
1249.00,100.92
1248.00,100.91
1247.00,100.91
1246.00,100.91
1245.00,100.90
1244.00,100.90
1243.00,100.89
1242.00,100.89
1241.00,100.89
1240.00,100.88
1239.00,100.88
1238.00,100.89
1237.00,100.89
1236.00,100.89
1235.00,100.89
1234.00,100.90
1233.00,100.90
1232.00,100.90
1231.00,100.90
1230.00,100.90
1229.00,100.91
1228.00,100.90
1227.00,100.90
1226.00,100.90
1225.00,100.90
1224.00,100.90
1223.00,100.90
1222.00,100.90
1221.00,100.90
1220.00,100.90
1219.00,100.91
1218.00,100.91
1217.00,100.92
1216.00,100.92
1215.00,100.92
1214.00,100.93
1213.00,100.93
1212.00,100.93
1211.00,100.93
1210.00,100.93
1209.00,100.93
1208.00,100.92
1207.00,100.92
1206.00,100.93
1205.00,100.92
1204.00,100.92
1203.00,100.91
1202.00,100.91
1201.00,100.91
1200.00,100.91
1199.00,100.92
1198.00,100.92
1197.00,100.92
1196.00,100.93
1195.00,100.93
1194.00,100.92
1193.00,100.92
1192.00,100.91
1191.00,100.91
1190.00,100.91
1189.00,100.92
1188.00,100.93
1187.00,100.93
1186.00,100.93
1185.00,100.93
1184.00,100.93
1183.00,100.93
1182.00,100.93
1181.00,100.93
1180.00,100.92
1179.00,100.92
1178.00,100.93
1177.00,100.93
1176.00,100.94
1175.00,100.95
1174.00,100.96
1173.00,100.97
1172.00,100.96
1171.00,100.96
1170.00,100.95
1169.00,100.95
1168.00,100.95
1167.00,100.94
1166.00,100.95
1165.00,100.95
1164.00,100.94
1163.00,100.94
1162.00,100.94
1161.00,100.94
1160.00,100.93
1159.00,100.93
1158.00,100.93
1157.00,100.93
1156.00,100.93
1155.00,100.93
1154.00,100.94
1153.00,100.94
1152.00,100.94
1151.00,100.95
1150.00,100.95
1149.00,100.95
1148.00,100.95
1147.00,100.95
1146.00,100.95
1145.00,100.95
1144.00,100.95
1143.00,100.95
1142.00,100.95
1141.00,100.95
1140.00,100.95
1139.00,100.95
1138.00,100.96
1137.00,100.97
1136.00,100.97
1135.00,100.98
1134.00,100.98
1133.00,100.98
1132.00,100.98
1131.00,100.98
1130.00,100.99
1129.00,100.99
1128.00,100.99
1127.00,100.98
1126.00,100.98
1125.00,100.98
1124.00,100.98
1123.00,100.98
1122.00,100.97
1121.00,100.97
1120.00,100.97
1119.00,100.97
1118.00,100.97
1117.00,100.97
1116.00,100.96
1115.00,100.96
1114.00,100.97
1113.00,100.97
1112.00,100.97
1111.00,100.96
1110.00,100.96
1109.00,100.96
1108.00,100.95
1107.00,100.95
1106.00,100.95
1105.00,100.95
1104.00,100.94
1103.00,100.93
1102.00,100.93
1101.00,100.92
1100.00,100.92
1099.00,100.92
1098.00,100.92
1097.00,100.92
1096.00,100.91
1095.00,100.90
1094.00,100.91
1093.00,100.91
1092.00,100.91
1091.00,100.91
1090.00,100.91
1089.00,100.90
1088.00,100.90
1087.00,100.90
1086.00,100.91
1085.00,100.92
1084.00,100.92
1083.00,100.92
1082.00,100.93
1081.00,100.93
1080.00,100.93
1079.00,100.93
1078.00,100.92
1077.00,100.91
1076.00,100.90
1075.00,100.90
1074.00,100.90
1073.00,100.92
1072.00,100.92
1071.00,100.92
1070.00,100.91
1069.00,100.90
1068.00,100.89
1067.00,100.90
1066.00,100.90
1065.00,100.90
1064.00,100.90
1063.00,100.90
1062.00,100.91
1061.00,100.91
1060.00,100.91
1059.00,100.92
1058.00,100.92
1057.00,100.93
1056.00,100.92
1055.00,100.92
1054.00,100.93
1053.00,100.93
1052.00,100.93
1051.00,100.92
1050.00,100.92
1049.00,100.91
1048.00,100.90
1047.00,100.90
1046.00,100.89
1045.00,100.89
1044.00,100.88
1043.00,100.89
1042.00,100.89
1041.00,100.89
1040.00,100.89
1039.00,100.89
1038.00,100.89
1037.00,100.89
1036.00,100.89
1035.00,100.89
1034.00,100.90
1033.00,100.90
1032.00,100.89
1031.00,100.89
1030.00,100.90
1029.00,100.90
1028.00,100.91
1027.00,100.92
1026.00,100.93
1025.00,100.94
1024.00,100.95
1023.00,100.97
1022.00,100.99
1021.00,101.01
1020.00,101.02
1019.00,101.03
1018.00,101.04
1017.00,101.04
1016.00,101.04
1015.00,101.03
1014.00,101.02
1013.00,101.00
1012.00,100.98
1011.00,100.96
1010.00,100.95
1009.00,100.94
1008.00,100.92
1007.00,100.90
1006.00,100.89
1005.00,100.89
1004.00,100.89
1003.00,100.89
1002.00,100.90
1001.00,100.90
1000.00,100.89
999.00,100.89
998.00,100.89
997.00,100.89
996.00,100.88
995.00,100.88
994.00,100.89
993.00,100.89
992.00,100.89
991.00,100.89
990.00,100.89
989.00,100.90
988.00,100.90
987.00,100.90
986.00,100.89
985.00,100.89
984.00,100.89
983.00,100.89
982.00,100.89
981.00,100.89
980.00,100.89
979.00,100.89
978.00,100.89
977.00,100.89
976.00,100.89
975.00,100.89
974.00,100.89
973.00,100.89
972.00,100.89
971.00,100.89
970.00,100.90
969.00,100.90
968.00,100.90
967.00,100.90
966.00,100.91
965.00,100.91
964.00,100.91
963.00,100.91
962.00,100.91
961.00,100.91
960.00,100.90
959.00,100.89
958.00,100.89
957.00,100.89
956.00,100.90
955.00,100.90
954.00,100.91
953.00,100.91
952.00,100.91
951.00,100.91
950.00,100.91
949.00,100.91
948.00,100.90
947.00,100.89
946.00,100.90
945.00,100.91
944.00,100.91
943.00,100.92
942.00,100.91
941.00,100.90
940.00,100.89
939.00,100.89
938.00,100.90
937.00,100.91
936.00,100.92
935.00,100.92
934.00,100.92
933.00,100.92
932.00,100.92
931.00,100.92
930.00,100.93
929.00,100.93
928.00,100.94
927.00,100.94
926.00,100.95
925.00,100.95
924.00,100.95
923.00,100.94
922.00,100.95
921.00,100.95
920.00,100.94
919.00,100.93
918.00,100.93
917.00,100.93
916.00,100.93
915.00,100.94
914.00,100.95
913.00,100.95
912.00,100.95
911.00,100.94
910.00,100.94
909.00,100.94
908.00,100.94
907.00,100.94
906.00,100.94
905.00,100.94
904.00,100.93
903.00,100.94
902.00,100.95
901.00,100.96
900.00,100.96
899.00,100.96
898.00,100.96
897.00,100.97
896.00,100.97
895.00,100.96
894.00,100.95
893.00,100.93
892.00,100.92
891.00,100.93
890.00,100.94
889.00,100.95
888.00,100.96
887.00,100.97
886.00,100.97
885.00,100.96
884.00,100.95
883.00,100.96
882.00,100.98
881.00,100.99
880.00,101.01
879.00,101.01
878.00,101.01
877.00,101.00
876.00,100.98
875.00,100.97
874.00,100.96
873.00,100.96
872.00,100.96
871.00,100.97
870.00,100.98
869.00,100.98
868.00,100.97
867.00,100.96
866.00,100.96
865.00,100.97
864.00,100.98
863.00,100.99
862.00,100.99
861.00,100.99
860.00,100.99
859.00,100.99
858.00,100.99
857.00,100.98
856.00,100.98
855.00,100.98
854.00,100.98
853.00,100.98
852.00,100.98
851.00,100.99
850.00,100.99
849.00,100.99
848.00,100.99
847.00,100.99
846.00,101.00
845.00,101.01
844.00,101.02
843.00,101.02
842.00,101.03
841.00,101.02
840.00,101.00
839.00,100.98
838.00,100.97
837.00,100.97
836.00,100.97
835.00,100.98
834.00,100.99
833.00,100.99
832.00,100.99
831.00,100.98
830.00,100.98
829.00,100.97
828.00,100.97
827.00,100.97
826.00,100.99
825.00,101.01
824.00,101.02
823.00,101.03
822.00,101.03
821.00,101.02
820.00,101.02
819.00,101.01
818.00,101.01
817.00,101.01
816.00,101.00
815.00,100.99
814.00,100.98
813.00,100.97
812.00,100.97
811.00,100.98
810.00,101.01
809.00,101.03
808.00,101.05
807.00,101.04
806.00,101.03
805.00,101.02
804.00,101.01
803.00,101.00
802.00,101.00
801.00,101.00
800.00,101.00
799.00,101.00
798.00,101.00
797.00,101.00
796.00,101.00
795.00,101.00
794.00,101.01
793.00,101.01
792.00,101.01
791.00,101.00
790.00,100.99
789.00,100.98
788.00,100.98
787.00,101.00
786.00,101.02
785.00,101.03
784.00,101.03
783.00,101.03
782.00,101.03
781.00,101.03
780.00,101.03
779.00,101.02
778.00,101.01
777.00,101.02
776.00,101.02
775.00,101.02
774.00,101.02
773.00,101.00
772.00,100.98
771.00,100.98
770.00,100.98
769.00,100.99
768.00,101.01
767.00,101.02
766.00,101.05
765.00,101.07
764.00,101.08
763.00,101.07
762.00,101.05
761.00,101.02
760.00,101.01
759.00,101.01
758.00,101.01
757.00,101.01
756.00,101.00
755.00,100.99
754.00,100.99
753.00,101.00
752.00,101.01
751.00,101.02
750.00,101.03
749.00,101.04
748.00,101.04
747.00,101.04
746.00,101.03
745.00,101.03
744.00,101.03
743.00,101.03
742.00,101.04
741.00,101.05
740.00,101.04
739.00,101.03
738.00,101.01
737.00,100.99
736.00,100.99
735.00,101.00
734.00,101.02
733.00,101.03
732.00,101.02
731.00,101.01
730.00,101.01
729.00,101.03
728.00,101.04
727.00,101.05
726.00,101.05
725.00,101.05
724.00,101.04
723.00,101.05
722.00,101.05
721.00,101.05
720.00,101.03
719.00,101.01
718.00,101.00
717.00,101.00
716.00,101.00
715.00,101.01
714.00,101.01
713.00,101.01
712.00,101.01
711.00,101.02
710.00,101.04
709.00,101.05
708.00,101.04
707.00,101.04
706.00,101.04
705.00,101.04
704.00,101.05
703.00,101.05
702.00,101.05
701.00,101.04
700.00,101.04
699.00,101.04
698.00,101.04
697.00,101.05
696.00,101.07
695.00,101.10
694.00,101.12
693.00,101.12
692.00,101.09
691.00,101.07
690.00,101.05
689.00,101.04
688.00,101.03
687.00,101.04
686.00,101.07
685.00,101.07
684.00,101.07
683.00,101.07
682.00,101.10
681.00,101.14
680.00,101.16
679.00,101.18
678.00,101.19
677.00,101.18
676.00,101.17
675.00,101.15
674.00,101.14
673.00,101.14
672.00,101.18
671.00,101.34
670.00,101.64
669.00,101.92
668.00,101.98
667.00,101.77
666.00,101.44
665.00,101.19
664.00,101.06
663.00,101.04
662.00,101.06
661.00,101.08
660.00,101.03
659.00,101.01
658.00,101.00
657.00,101.00
656.00,101.02
655.00,101.03
654.00,101.07
653.00,101.04
652.00,100.81
651.00,100.81
650.00,100.78
