Created as New Dataset,Sample 305 By iruser Date Friday, March 13 2026
cm-1,%T
4200.00,100.96
4199.00,100.96
4198.00,100.96
4197.00,100.95
4196.00,100.95
4195.00,100.95
4194.00,100.95
4193.00,100.96
4192.00,100.96
4191.00,100.96
4190.00,100.96
4189.00,100.96
4188.00,100.96
4187.00,100.97
4186.00,100.97
4185.00,100.96
4184.00,100.96
4183.00,100.95
4182.00,100.94
4181.00,100.95
4180.00,100.95
4179.00,100.96
4178.00,100.96
4177.00,100.97
4176.00,100.97
4175.00,100.96
4174.00,100.96
4173.00,100.95
4172.00,100.94
4171.00,100.94
4170.00,100.95
4169.00,100.96
4168.00,100.96
4167.00,100.96
4166.00,100.96
4165.00,100.95
4164.00,100.95
4163.00,100.95
4162.00,100.95
4161.00,100.95
4160.00,100.94
4159.00,100.94
4158.00,100.94
4157.00,100.95
4156.00,100.95
4155.00,100.95
4154.00,100.96
4153.00,100.96
4152.00,100.96
4151.00,100.96
4150.00,100.96
4149.00,100.95
4148.00,100.95
4147.00,100.94
4146.00,100.93
4145.00,100.93
4144.00,100.93
4143.00,100.93
4142.00,100.93
4141.00,100.93
4140.00,100.93
4139.00,100.93
4138.00,100.93
4137.00,100.93
4136.00,100.93
4135.00,100.94
4134.00,100.94
4133.00,100.94
4132.00,100.94
4131.00,100.95
4130.00,100.95
4129.00,100.95
4128.00,100.94
4127.00,100.93
4126.00,100.93
4125.00,100.93
4124.00,100.93
4123.00,100.94
4122.00,100.94
4121.00,100.94
4120.00,100.93
4119.00,100.92
4118.00,100.92
4117.00,100.92
4116.00,100.93
4115.00,100.93
4114.00,100.93
4113.00,100.92
4112.00,100.92
4111.00,100.91
4110.00,100.91
4109.00,100.91
4108.00,100.91
4107.00,100.91
4106.00,100.92
4105.00,100.92
4104.00,100.92
4103.00,100.92
4102.00,100.92
4101.00,100.92
4100.00,100.92
4099.00,100.92
4098.00,100.92
4097.00,100.92
4096.00,100.92
4095.00,100.92
4094.00,100.92
4093.00,100.92
4092.00,100.92
4091.00,100.92
4090.00,100.92
4089.00,100.92
4088.00,100.92
4087.00,100.92
4086.00,100.92
4085.00,100.92
4084.00,100.92
4083.00,100.91
4082.00,100.91
4081.00,100.91
4080.00,100.91
4079.00,100.91
4078.00,100.91
4077.00,100.92
4076.00,100.92
4075.00,100.92
4074.00,100.92
4073.00,100.92
4072.00,100.91
4071.00,100.91
4070.00,100.91
4069.00,100.91
4068.00,100.91
4067.00,100.92
4066.00,100.92
4065.00,100.92
4064.00,100.91
4063.00,100.90
4062.00,100.90
4061.00,100.90
4060.00,100.90
4059.00,100.91
4058.00,100.91
4057.00,100.91
4056.00,100.91
4055.00,100.91
4054.00,100.90
4053.00,100.90
4052.00,100.90
4051.00,100.89
4050.00,100.89
4049.00,100.90
4048.00,100.90
4047.00,100.91
4046.00,100.91
4045.00,100.91
4044.00,100.91
4043.00,100.91
4042.00,100.91
4041.00,100.91
4040.00,100.90
4039.00,100.90
4038.00,100.90
4037.00,100.90
4036.00,100.90
4035.00,100.90
4034.00,100.90
4033.00,100.90
4032.00,100.90
4031.00,100.90
4030.00,100.89
4029.00,100.89
4028.00,100.89
4027.00,100.89
4026.00,100.89
4025.00,100.89
4024.00,100.89
4023.00,100.89
4022.00,100.89
4021.00,100.89
4020.00,100.90
4019.00,100.90
4018.00,100.89
4017.00,100.89
4016.00,100.89
4015.00,100.88
4014.00,100.89
4013.00,100.89
4012.00,100.89
4011.00,100.89
4010.00,100.89
4009.00,100.90
4008.00,100.90
4007.00,100.90
4006.00,100.90
4005.00,100.90
4004.00,100.90
4003.00,100.90
4002.00,100.90
4001.00,100.90
4000.00,100.89
3999.00,100.89
3998.00,100.89
3997.00,100.89
3996.00,100.90
3995.00,100.90
3994.00,100.90
3993.00,100.89
3992.00,100.89
3991.00,100.88
3990.00,100.88
3989.00,100.88
3988.00,100.89
3987.00,100.89
3986.00,100.89
3985.00,100.89
3984.00,100.90
3983.00,100.90
3982.00,100.90
3981.00,100.89
3980.00,100.89
3979.00,100.88
3978.00,100.88
3977.00,100.89
3976.00,100.89
3975.00,100.88
3974.00,100.88
3973.00,100.88
3972.00,100.88
3971.00,100.88
3970.00,100.88
3969.00,100.89
3968.00,100.89
3967.00,100.89
3966.00,100.89
3965.00,100.89
3964.00,100.89
3963.00,100.89
3962.00,100.89
3961.00,100.89
3960.00,100.89
3959.00,100.89
3958.00,100.88
3957.00,100.88
3956.00,100.88
3955.00,100.88
3954.00,100.88
3953.00,100.89
3952.00,100.89
3951.00,100.89
3950.00,100.89
3949.00,100.89
3948.00,100.89
3947.00,100.89
3946.00,100.90
3945.00,100.90
3944.00,100.90
3943.00,100.90
3942.00,100.90
3941.00,100.90
3940.00,100.89
3939.00,100.88
3938.00,100.88
3937.00,100.88
3936.00,100.88
3935.00,100.88
3934.00,100.89
3933.00,100.89
3932.00,100.88
3931.00,100.88
3930.00,100.88
3929.00,100.88
3928.00,100.88
3927.00,100.88
3926.00,100.89
3925.00,100.89
3924.00,100.90
3923.00,100.91
3922.00,100.91
3921.00,100.91
3920.00,100.91
3919.00,100.90
3918.00,100.90
3917.00,100.89
3916.00,100.90
3915.00,100.89
3914.00,100.89
3913.00,100.88
3912.00,100.88
3911.00,100.88
3910.00,100.88
3909.00,100.89
3908.00,100.90
3907.00,100.91
3906.00,100.91
3905.00,100.91
3904.00,100.91
3903.00,100.91
3902.00,100.90
3901.00,100.89
3900.00,100.89
3899.00,100.90
3898.00,100.89
3897.00,100.89
3896.00,100.89
3895.00,100.89
3894.00,100.89
3893.00,100.89
3892.00,100.89
3891.00,100.90
3890.00,100.91
3889.00,100.90
3888.00,100.90
3887.00,100.90
3886.00,100.90
3885.00,100.91
3884.00,100.90
3883.00,100.89
3882.00,100.89
3881.00,100.89
3880.00,100.90
3879.00,100.90
3878.00,100.90
3877.00,100.89
3876.00,100.90
3875.00,100.90
3874.00,100.91
3873.00,100.90
3872.00,100.90
3871.00,100.89
3870.00,100.90
3869.00,100.90
3868.00,100.89
3867.00,100.89
3866.00,100.89
3865.00,100.90
3864.00,100.89
3863.00,100.89
3862.00,100.89
3861.00,100.89
3860.00,100.89
3859.00,100.90
3858.00,100.92
3857.00,100.93
3856.00,100.94
3855.00,100.93
3854.00,100.93
3853.00,100.93
3852.00,100.91
3851.00,100.89
3850.00,100.88
3849.00,100.89
3848.00,100.89
3847.00,100.89
3846.00,100.89
3845.00,100.89
3844.00,100.90
3843.00,100.90
3842.00,100.90
3841.00,100.90
3840.00,100.90
3839.00,100.90
3838.00,100.90
3837.00,100.89
3836.00,100.89
3835.00,100.89
3834.00,100.89
3833.00,100.89
3832.00,100.89
3831.00,100.90
3830.00,100.89
3829.00,100.89
3828.00,100.89
3827.00,100.89
3826.00,100.90
3825.00,100.90
3824.00,100.90
3823.00,100.89
3822.00,100.90
3821.00,100.91
3820.00,100.91
3819.00,100.90
3818.00,100.89
3817.00,100.90
3816.00,100.91
3815.00,100.91
3814.00,100.90
3813.00,100.89
3812.00,100.89
3811.00,100.90
3810.00,100.90
3809.00,100.89
3808.00,100.89
3807.00,100.90
3806.00,100.91
3805.00,100.91
3804.00,100.91
3803.00,100.90
3802.00,100.91
3801.00,100.91
3800.00,100.91
3799.00,100.90
3798.00,100.90
3797.00,100.90
3796.00,100.90
3795.00,100.90
3794.00,100.90
3793.00,100.90
3792.00,100.90
3791.00,100.90
3790.00,100.90
3789.00,100.90
3788.00,100.90
3787.00,100.90
3786.00,100.90
3785.00,100.90
3784.00,100.90
3783.00,100.90
3782.00,100.90
3781.00,100.90
3780.00,100.90
3779.00,100.90
3778.00,100.90
3777.00,100.90
3776.00,100.90
3775.00,100.91
3774.00,100.91
3773.00,100.90
3772.00,100.90
3771.00,100.90
3770.00,100.90
3769.00,100.91
3768.00,100.90
3767.00,100.90
3766.00,100.91
3765.00,100.91
3764.00,100.92
3763.00,100.92
3762.00,100.92
3761.00,100.92
3760.00,100.92
3759.00,100.92
3758.00,100.92
3757.00,100.93
3756.00,100.93
3755.00,100.94
3754.00,100.94
3753.00,100.95
3752.00,100.94
3751.00,100.94
3750.00,100.94
3749.00,100.95
3748.00,100.95
3747.00,100.94
3746.00,100.93
3745.00,100.93
3744.00,100.94
3743.00,100.93
3742.00,100.92
3741.00,100.92
3740.00,100.92
3739.00,100.91
3738.00,100.90
3737.00,100.90
3736.00,100.91
3735.00,100.91
3734.00,100.91
3733.00,100.92
3732.00,100.93
3731.00,100.93
3730.00,100.93
3729.00,100.93
3728.00,100.93
3727.00,100.93
3726.00,100.93
3725.00,100.92
3724.00,100.92
3723.00,100.93
3722.00,100.93
3721.00,100.92
3720.00,100.92
3719.00,100.91
3718.00,100.91
3717.00,100.91
3716.00,100.92
3715.00,100.92
3714.00,100.93
3713.00,100.93
3712.00,100.93
3711.00,100.92
3710.00,100.91
3709.00,100.91
3708.00,100.90
3707.00,100.90
3706.00,100.89
3705.00,100.89
3704.00,100.88
3703.00,100.89
3702.00,100.89
3701.00,100.90
3700.00,100.89
3699.00,100.88
3698.00,100.88
3697.00,100.87
3696.00,100.88
3695.00,100.88
3694.00,100.89
3693.00,100.89
3692.00,100.89
3691.00,100.88
3690.00,100.87
3689.00,100.87
3688.00,100.87
3687.00,100.86
3686.00,100.85
3685.00,100.85
3684.00,100.85
3683.00,100.86
3682.00,100.86
3681.00,100.87
3680.00,100.87
3679.00,100.87
3678.00,100.86
3677.00,100.85
3676.00,100.86
3675.00,100.88
3674.00,100.89
3673.00,100.88
3672.00,100.87
3671.00,100.86
3670.00,100.86
3669.00,100.85
3668.00,100.84
3667.00,100.84
3666.00,100.84
3665.00,100.84
3664.00,100.84
3663.00,100.85
3662.00,100.85
3661.00,100.86
3660.00,100.87
3659.00,100.87
3658.00,100.87
3657.00,100.88
3656.00,100.89
3655.00,100.90
3654.00,100.90
3653.00,100.91
3652.00,100.91
3651.00,100.90
3650.00,100.90
3649.00,100.89
3648.00,100.89
3647.00,100.89
3646.00,100.89
3645.00,100.89
3644.00,100.88
3643.00,100.89
3642.00,100.89
3641.00,100.89
3640.00,100.89
3639.00,100.90
3638.00,100.90
3637.00,100.90
3636.00,100.90
3635.00,100.91
3634.00,100.92
3633.00,100.92
3632.00,100.92
3631.00,100.92
3630.00,100.92
3629.00,100.93
3628.00,100.94
3627.00,100.94
3626.00,100.93
3625.00,100.93
3624.00,100.93
3623.00,100.93
3622.00,100.94
3621.00,100.94
3620.00,100.94
3619.00,100.95
3618.00,100.95
3617.00,100.94
3616.00,100.94
3615.00,100.93
3614.00,100.94
3613.00,100.95
3612.00,100.95
3611.00,100.95
3610.00,100.94
3609.00,100.94
3608.00,100.93
3607.00,100.93
3606.00,100.93
3605.00,100.93
3604.00,100.93
3603.00,100.93
3602.00,100.93
3601.00,100.92
3600.00,100.92
3599.00,100.93
3598.00,100.93
3597.00,100.93
3596.00,100.93
3595.00,100.94
3594.00,100.94
3593.00,100.94
3592.00,100.94
3591.00,100.94
3590.00,100.94
3589.00,100.94
3588.00,100.94
3587.00,100.95
3586.00,100.95
3585.00,100.94
3584.00,100.94
3583.00,100.93
3582.00,100.93
3581.00,100.93
3580.00,100.94
3579.00,100.94
3578.00,100.94
3577.00,100.94
3576.00,100.93
3575.00,100.93
3574.00,100.94
3573.00,100.94
3572.00,100.95
3571.00,100.95
3570.00,100.95
3569.00,100.94
3568.00,100.94
3567.00,100.94
3566.00,100.94
3565.00,100.94
3564.00,100.94
3563.00,100.94
3562.00,100.94
3561.00,100.94
3560.00,100.95
3559.00,100.95
3558.00,100.95
3557.00,100.95
3556.00,100.94
3555.00,100.93
3554.00,100.92
3553.00,100.92
3552.00,100.92
3551.00,100.92
3550.00,100.92
3549.00,100.93
3548.00,100.94
3547.00,100.94
3546.00,100.95
3545.00,100.95
3544.00,100.95
3543.00,100.94
3542.00,100.93
3541.00,100.93
3540.00,100.93
3539.00,100.93
3538.00,100.93
3537.00,100.93
3536.00,100.93
3535.00,100.92
3534.00,100.92
3533.00,100.93
3532.00,100.93
3531.00,100.94
3530.00,100.94
3529.00,100.94
3528.00,100.94
3527.00,100.94
3526.00,100.94
3525.00,100.94
3524.00,100.94
3523.00,100.94
3522.00,100.94
3521.00,100.94
3520.00,100.94
3519.00,100.94
3518.00,100.95
3517.00,100.94
3516.00,100.94
3515.00,100.93
3514.00,100.92
3513.00,100.92
3512.00,100.92
3511.00,100.92
3510.00,100.93
3509.00,100.93
3508.00,100.93
3507.00,100.93
3506.00,100.93
3505.00,100.92
3504.00,100.92
3503.00,100.92
3502.00,100.92
3501.00,100.92
3500.00,100.92
3499.00,100.92
3498.00,100.92
3497.00,100.92
3496.00,100.93
3495.00,100.93
3494.00,100.93
3493.00,100.92
3492.00,100.92
3491.00,100.91
3490.00,100.92
3489.00,100.92
3488.00,100.92
3487.00,100.92
3486.00,100.92
3485.00,100.92
3484.00,100.92
3483.00,100.92
3482.00,100.92
3481.00,100.92
3480.00,100.92
3479.00,100.92
3478.00,100.92
3477.00,100.92
3476.00,100.92
3475.00,100.92
3474.00,100.92
3473.00,100.92
3472.00,100.91
3471.00,100.91
3470.00,100.91
3469.00,100.91
3468.00,100.91
3467.00,100.91
3466.00,100.91
3465.00,100.92
3464.00,100.92
3463.00,100.92
3462.00,100.92
3461.00,100.91
3460.00,100.91
3459.00,100.90
3458.00,100.90
3457.00,100.90
3456.00,100.90
3455.00,100.90
3454.00,100.91
3453.00,100.91
3452.00,100.91
3451.00,100.90
3450.00,100.90
3449.00,100.90
3448.00,100.90
3447.00,100.91
3446.00,100.91
3445.00,100.91
3444.00,100.92
3443.00,100.92
3442.00,100.91
3441.00,100.91
3440.00,100.91
3439.00,100.91
3438.00,100.91
3437.00,100.91
3436.00,100.90
3435.00,100.90
3434.00,100.90
3433.00,100.91
3432.00,100.91
3431.00,100.91
3430.00,100.91
3429.00,100.91
3428.00,100.90
3427.00,100.90
3426.00,100.90
3425.00,100.90
3424.00,100.90
3423.00,100.91
3422.00,100.91
3421.00,100.90
3420.00,100.90
3419.00,100.90
3418.00,100.90
3417.00,100.89
3416.00,100.89
3415.00,100.89
3414.00,100.89
3413.00,100.89
3412.00,100.89
3411.00,100.89
3410.00,100.89
3409.00,100.89
3408.00,100.89
3407.00,100.89
3406.00,100.90
3405.00,100.90
3404.00,100.90
3403.00,100.90
3402.00,100.89
3401.00,100.89
3400.00,100.89
3399.00,100.89
3398.00,100.89
3397.00,100.89
3396.00,100.89
3395.00,100.89
3394.00,100.89
3393.00,100.89
3392.00,100.89
3391.00,100.89
3390.00,100.90
3389.00,100.90
3388.00,100.91
3387.00,100.91
3386.00,100.90
3385.00,100.89
3384.00,100.89
3383.00,100.88
3382.00,100.88
3381.00,100.88
3380.00,100.88
3379.00,100.89
3378.00,100.89
3377.00,100.89
3376.00,100.89
3375.00,100.89
3374.00,100.89
3373.00,100.89
3372.00,100.88
3371.00,100.88
3370.00,100.88
3369.00,100.88
3368.00,100.89
3367.00,100.89
3366.00,100.89
3365.00,100.89
3364.00,100.90
3363.00,100.90
3362.00,100.90
3361.00,100.90
3360.00,100.90
3359.00,100.90
3358.00,100.90
3357.00,100.90
3356.00,100.89
3355.00,100.89
3354.00,100.89
3353.00,100.89
3352.00,100.89
3351.00,100.88
3350.00,100.87
3349.00,100.87
3348.00,100.87
3347.00,100.87
3346.00,100.88
3345.00,100.88
3344.00,100.89
3343.00,100.89
3342.00,100.90
3341.00,100.89
3340.00,100.89
3339.00,100.88
3338.00,100.88
3337.00,100.89
3336.00,100.89
3335.00,100.89
3334.00,100.89
3333.00,100.89
3332.00,100.89
3331.00,100.89
3330.00,100.89
3329.00,100.89
3328.00,100.88
3327.00,100.88
3326.00,100.87
3325.00,100.87
3324.00,100.87
3323.00,100.88
3322.00,100.89
3321.00,100.89
3320.00,100.89
3319.00,100.89
3318.00,100.89
3317.00,100.89
3316.00,100.90
3315.00,100.90
3314.00,100.90
3313.00,100.89
3312.00,100.88
3311.00,100.88
3310.00,100.87
3309.00,100.87
3308.00,100.87
3307.00,100.87
3306.00,100.87
3305.00,100.87
3304.00,100.87
3303.00,100.88
3302.00,100.88
3301.00,100.88
3300.00,100.89
3299.00,100.89
3298.00,100.88
3297.00,100.88
3296.00,100.88
3295.00,100.88
3294.00,100.88
3293.00,100.88
3292.00,100.88
3291.00,100.88
3290.00,100.89
3289.00,100.89
3288.00,100.89
3287.00,100.89
3286.00,100.88
3285.00,100.88
3284.00,100.88
3283.00,100.88
3282.00,100.88
3281.00,100.88
3280.00,100.88
3279.00,100.88
3278.00,100.88
3277.00,100.88
3276.00,100.88
3275.00,100.88
3274.00,100.88
3273.00,100.89
3272.00,100.89
3271.00,100.88
3270.00,100.88
3269.00,100.88
3268.00,100.88
3267.00,100.88
3266.00,100.87
3265.00,100.87
3264.00,100.87
3263.00,100.87
3262.00,100.88
3261.00,100.88
3260.00,100.88
3259.00,100.88
3258.00,100.88
3257.00,100.88
3256.00,100.88
3255.00,100.88
3254.00,100.88
3253.00,100.88
3252.00,100.88
3251.00,100.88
3250.00,100.88
3249.00,100.88
3248.00,100.88
3247.00,100.88
3246.00,100.88
3245.00,100.88
3244.00,100.88
3243.00,100.88
3242.00,100.87
3241.00,100.87
3240.00,100.87
3239.00,100.87
3238.00,100.87
3237.00,100.87
3236.00,100.87
3235.00,100.87
3234.00,100.87
3233.00,100.88
3232.00,100.88
3231.00,100.88
3230.00,100.88
3229.00,100.88
3228.00,100.87
3227.00,100.87
3226.00,100.87
3225.00,100.86
3224.00,100.87
3223.00,100.87
3222.00,100.87
3221.00,100.88
3220.00,100.88
3219.00,100.88
3218.00,100.88
3217.00,100.89
3216.00,100.89
3215.00,100.88
3214.00,100.88
3213.00,100.89
3212.00,100.89
3211.00,100.89
3210.00,100.90
3209.00,100.90
3208.00,100.89
3207.00,100.89
3206.00,100.89
3205.00,100.89
3204.00,100.89
3203.00,100.89
3202.00,100.89
3201.00,100.90
3200.00,100.90
3199.00,100.90
3198.00,100.90
3197.00,100.90
3196.00,100.90
3195.00,100.90
3194.00,100.89
3193.00,100.89
3192.00,100.88
3191.00,100.88
3190.00,100.88
3189.00,100.89
3188.00,100.89
3187.00,100.89
3186.00,100.89
3185.00,100.89
3184.00,100.89
3183.00,100.89
3182.00,100.89
3181.00,100.89
3180.00,100.89
3179.00,100.89
3178.00,100.89
3177.00,100.89
3176.00,100.89
3175.00,100.89
3174.00,100.89
3173.00,100.89
3172.00,100.89
3171.00,100.89
3170.00,100.89
3169.00,100.89
3168.00,100.90
3167.00,100.90
3166.00,100.90
3165.00,100.90
3164.00,100.90
3163.00,100.90
3162.00,100.90
3161.00,100.90
3160.00,100.90
3159.00,100.90
3158.00,100.89
3157.00,100.89
3156.00,100.90
3155.00,100.90
3154.00,100.90
3153.00,100.90
3152.00,100.90
3151.00,100.91
3150.00,100.91
3149.00,100.91
3148.00,100.91
3147.00,100.90
3146.00,100.90
3145.00,100.90
3144.00,100.90
3143.00,100.90
3142.00,100.90
3141.00,100.90
3140.00,100.89
3139.00,100.89
3138.00,100.89
3137.00,100.89
3136.00,100.90
3135.00,100.90
3134.00,100.91
3133.00,100.91
3132.00,100.91
3131.00,100.91
3130.00,100.91
3129.00,100.90
3128.00,100.91
3127.00,100.91
3126.00,100.91
3125.00,100.92
3124.00,100.92
3123.00,100.91
3122.00,100.91
3121.00,100.91
3120.00,100.91
3119.00,100.91
3118.00,100.91
3117.00,100.91
3116.00,100.92
3115.00,100.92
3114.00,100.92
3113.00,100.92
3112.00,100.92
3111.00,100.92
3110.00,100.92
3109.00,100.92
3108.00,100.92
3107.00,100.92
3106.00,100.93
3105.00,100.93
3104.00,100.93
3103.00,100.93
3102.00,100.93
3101.00,100.93
3100.00,100.93
3099.00,100.93
3098.00,100.93
3097.00,100.93
3096.00,100.93
3095.00,100.93
3094.00,100.93
3093.00,100.92
3092.00,100.92
3091.00,100.92
3090.00,100.93
3089.00,100.93
3088.00,100.94
3087.00,100.94
3086.00,100.94
3085.00,100.94
3084.00,100.93
3083.00,100.93
3082.00,100.93
3081.00,100.92
3080.00,100.92
3079.00,100.92
3078.00,100.92
3077.00,100.92
3076.00,100.93
3075.00,100.93
3074.00,100.93
3073.00,100.94
3072.00,100.94
3071.00,100.95
3070.00,100.95
3069.00,100.94
3068.00,100.94
3067.00,100.94
3066.00,100.93
3065.00,100.93
3064.00,100.93
3063.00,100.94
3062.00,100.94
3061.00,100.95
3060.00,100.95
3059.00,100.95
3058.00,100.95
3057.00,100.95
3056.00,100.95
3055.00,100.95
3054.00,100.95
3053.00,100.95
3052.00,100.95
3051.00,100.95
3050.00,100.95
3049.00,100.95
3048.00,100.94
3047.00,100.94
3046.00,100.93
3045.00,100.93
3044.00,100.93
3043.00,100.93
3042.00,100.93
3041.00,100.94
3040.00,100.94
3039.00,100.94
3038.00,100.93
3037.00,100.93
3036.00,100.93
3035.00,100.92
3034.00,100.92
3033.00,100.92
3032.00,100.91
3031.00,100.91
3030.00,100.91
3029.00,100.90
3028.00,100.90
3027.00,100.89
3026.00,100.89
3025.00,100.88
3024.00,100.88
3023.00,100.87
3022.00,100.87
3021.00,100.86
3020.00,100.86
3019.00,100.85
3018.00,100.84
3017.00,100.83
3016.00,100.82
3015.00,100.82
3014.00,100.82
3013.00,100.82
3012.00,100.82
3011.00,100.81
3010.00,100.80
3009.00,100.79
3008.00,100.78
3007.00,100.77
3006.00,100.76
3005.00,100.75
3004.00,100.74
3003.00,100.73
3002.00,100.72
3001.00,100.72
3000.00,100.72
2999.00,100.71
2998.00,100.70
2997.00,100.69
2996.00,100.69
2995.00,100.68
2994.00,100.67
2993.00,100.66
2992.00,100.65
2991.00,100.64
2990.00,100.62
2989.00,100.61
2988.00,100.61
2987.00,100.61
2986.00,100.61
2985.00,100.62
2984.00,100.63
2983.00,100.63
2982.00,100.63
2981.00,100.63
2980.00,100.63
2979.00,100.63
2978.00,100.64
2977.00,100.64
2976.00,100.64
2975.00,100.63
2974.00,100.63
2973.00,100.63
2972.00,100.62
2971.00,100.63
2970.00,100.63
2969.00,100.64
2968.00,100.65
2967.00,100.66
2966.00,100.67
2965.00,100.68
2964.00,100.69
2963.00,100.70
2962.00,100.71
2961.00,100.71
2960.00,100.72
2959.00,100.72
2958.00,100.72
2957.00,100.72
2956.00,100.73
2955.00,100.73
2954.00,100.74
2953.00,100.75
2952.00,100.75
2951.00,100.76
2950.00,100.76
2949.00,100.76
2948.00,100.76
2947.00,100.76
2946.00,100.77
2945.00,100.77
2944.00,100.78
2943.00,100.78
2942.00,100.78
2941.00,100.79
2940.00,100.79
2939.00,100.79
2938.00,100.80
2937.00,100.81
2936.00,100.81
2935.00,100.81
2934.00,100.82
2933.00,100.82
2932.00,100.82
2931.00,100.81
2930.00,100.81
2929.00,100.81
2928.00,100.81
2927.00,100.81
2926.00,100.80
2925.00,100.80
2924.00,100.80
2923.00,100.80
2922.00,100.80
2921.00,100.80
2920.00,100.80
2919.00,100.79
2918.00,100.79
2917.00,100.78
2916.00,100.78
2915.00,100.77
2914.00,100.76
2913.00,100.76
2912.00,100.75
2911.00,100.76
2910.00,100.76
2909.00,100.76
2908.00,100.76
2907.00,100.75
2906.00,100.75
2905.00,100.75
2904.00,100.74
2903.00,100.73
2902.00,100.73
2901.00,100.73
2900.00,100.73
2899.00,100.74
2898.00,100.74
2897.00,100.75
2896.00,100.76
2895.00,100.76
2894.00,100.77
2893.00,100.77
2892.00,100.77
2891.00,100.77
2890.00,100.77
2889.00,100.77
2888.00,100.76
2887.00,100.76
2886.00,100.77
2885.00,100.77
2884.00,100.78
2883.00,100.78
2882.00,100.79
2881.00,100.80
2880.00,100.81
2879.00,100.81
2878.00,100.82
2877.00,100.83
2876.00,100.83
2875.00,100.83
2874.00,100.83
2873.00,100.83
2872.00,100.83
2871.00,100.83
2870.00,100.84
2869.00,100.84
2868.00,100.85
2867.00,100.85
2866.00,100.86
2865.00,100.88
2864.00,100.89
2863.00,100.90
2862.00,100.90
2861.00,100.91
2860.00,100.91
2859.00,100.91
2858.00,100.92
2857.00,100.93
2856.00,100.93
2855.00,100.94
2854.00,100.94
2853.00,100.94
2852.00,100.95
2851.00,100.95
2850.00,100.95
2849.00,100.95
2848.00,100.95
2847.00,100.95
2846.00,100.94
2845.00,100.93
2844.00,100.93
2843.00,100.93
2842.00,100.93
2841.00,100.93
2840.00,100.94
2839.00,100.95
2838.00,100.95
2837.00,100.96
2836.00,100.96
2835.00,100.96
2834.00,100.96
2833.00,100.96
2832.00,100.97
2831.00,100.97
2830.00,100.97
2829.00,100.97
2828.00,100.97
2827.00,100.97
2826.00,100.97
2825.00,100.96
2824.00,100.96
2823.00,100.96
2822.00,100.97
2821.00,100.97
2820.00,100.97
2819.00,100.98
2818.00,100.97
2817.00,100.97
2816.00,100.97
2815.00,100.98
2814.00,100.98
2813.00,100.98
2812.00,100.98
2811.00,100.98
2810.00,100.98
2809.00,100.98
2808.00,100.98
2807.00,100.98
2806.00,100.98
2805.00,100.99
2804.00,100.99
2803.00,100.99
2802.00,100.99
2801.00,100.98
2800.00,100.98
2799.00,100.98
2798.00,100.98
2797.00,100.98
2796.00,100.98
2795.00,100.98
2794.00,100.98
2793.00,100.99
2792.00,100.99
2791.00,100.99
2790.00,100.99
2789.00,100.99
2788.00,100.98
2787.00,100.98
2786.00,100.99
2785.00,100.99
2784.00,100.99
2783.00,100.98
2782.00,100.98
2781.00,100.98
2780.00,100.98
2779.00,100.98
2778.00,100.98
2777.00,100.99
2776.00,100.99
2775.00,100.99
2774.00,100.99
2773.00,100.99
2772.00,100.99
2771.00,100.99
2770.00,100.98
2769.00,100.98
2768.00,100.98
2767.00,100.98
2766.00,100.98
2765.00,100.98
2764.00,100.99
2763.00,100.99
2762.00,100.99
2761.00,100.99
2760.00,100.98
2759.00,100.98
2758.00,100.98
2757.00,100.98
2756.00,100.98
2755.00,100.98
2754.00,100.98
2753.00,100.98
2752.00,100.98
2751.00,100.98
2750.00,100.98
2749.00,100.99
2748.00,100.99
2747.00,100.99
2746.00,100.99
2745.00,100.99
2744.00,100.99
2743.00,100.99
2742.00,100.99
2741.00,100.99
2740.00,100.99
2739.00,100.99
2738.00,100.99
2737.00,100.99
2736.00,100.99
2735.00,100.99
2734.00,100.99
2733.00,100.99
2732.00,100.99
2731.00,100.99
2730.00,100.99
2729.00,100.99
2728.00,100.99
2727.00,100.99
2726.00,100.99
2725.00,100.99
2724.00,100.99
2723.00,100.99
2722.00,100.99
2721.00,100.99
2720.00,100.99
2719.00,100.99
2718.00,100.99
2717.00,100.99
2716.00,100.99
2715.00,100.99
2714.00,100.99
2713.00,100.99
2712.00,101.00
2711.00,101.00
2710.00,101.00
2709.00,100.99
2708.00,100.99
2707.00,100.98
2706.00,100.98
2705.00,100.98
2704.00,100.98
2703.00,100.99
2702.00,100.99
2701.00,100.99
2700.00,100.99
2699.00,100.98
2698.00,100.98
2697.00,100.98
2696.00,100.98
2695.00,100.98
2694.00,100.98
2693.00,100.99
2692.00,100.99
2691.00,100.99
2690.00,100.98
2689.00,100.98
2688.00,100.98
2687.00,100.98
2686.00,100.98
2685.00,100.98
2684.00,100.98
2683.00,100.98
2682.00,100.99
2681.00,100.99
2680.00,100.99
2679.00,100.99
2678.00,100.98
2677.00,100.98
2676.00,100.98
2675.00,100.99
2674.00,100.99
2673.00,100.99
2672.00,100.99
2671.00,100.99
2670.00,100.99
2669.00,100.99
2668.00,100.99
2667.00,100.99
2666.00,100.99
2665.00,100.98
2664.00,100.98
2663.00,100.98
2662.00,100.98
2661.00,100.98
2660.00,100.98
2659.00,100.97
2658.00,100.97
2657.00,100.97
2656.00,100.97
2655.00,100.97
2654.00,100.97
2653.00,100.97
2652.00,100.97
2651.00,100.97
2650.00,100.97
2649.00,100.97
2648.00,100.97
2647.00,100.97
2646.00,100.97
2645.00,100.98
2644.00,100.98
2643.00,100.98
2642.00,100.98
2641.00,100.98
2640.00,100.98
2639.00,100.98
2638.00,100.98
2637.00,100.98
2636.00,100.98
2635.00,100.97
2634.00,100.97
2633.00,100.97
2632.00,100.97
2631.00,100.97
2630.00,100.97
2629.00,100.97
2628.00,100.97
2627.00,100.97
2626.00,100.97
2625.00,100.97
2624.00,100.97
2623.00,100.97
2622.00,100.97
2621.00,100.97
2620.00,100.97
2619.00,100.97
2618.00,100.97
2617.00,100.97
2616.00,100.97
2615.00,100.97
2614.00,100.97
2613.00,100.97
2612.00,100.97
2611.00,100.96
2610.00,100.96
2609.00,100.95
2608.00,100.96
2607.00,100.96
2606.00,100.96
2605.00,100.97
2604.00,100.98
2603.00,100.98
2602.00,100.98
2601.00,100.98
2600.00,100.97
2599.00,100.97
2598.00,100.97
2597.00,100.98
2596.00,100.97
2595.00,100.97
2594.00,100.97
2593.00,100.97
2592.00,100.97
2591.00,100.97
2590.00,100.97
2589.00,100.97
2588.00,100.97
2587.00,100.97
2586.00,100.97
2585.00,100.96
2584.00,100.96
2583.00,100.95
2582.00,100.95
2581.00,100.96
2580.00,100.96
2579.00,100.96
2578.00,100.97
2577.00,100.97
2576.00,100.98
2575.00,100.99
2574.00,100.99
2573.00,101.00
2572.00,100.99
2571.00,100.98
2570.00,100.97
2569.00,100.96
2568.00,100.96
2567.00,100.96
2566.00,100.97
2565.00,100.96
2564.00,100.96
2563.00,100.96
2562.00,100.95
2561.00,100.95
2560.00,100.95
2559.00,100.96
2558.00,100.96
2557.00,100.96
2556.00,100.96
2555.00,100.96
2554.00,100.96
2553.00,100.96
2552.00,100.96
2551.00,100.96
2550.00,100.95
2549.00,100.96
2548.00,100.96
2547.00,100.96
2546.00,100.96
2545.00,100.95
2544.00,100.95
2543.00,100.95
2542.00,100.96
2541.00,100.96
2540.00,100.95
2539.00,100.95
2538.00,100.94
2537.00,100.94
2536.00,100.94
2535.00,100.93
2534.00,100.94
2533.00,100.95
2532.00,100.95
2531.00,100.95
2530.00,100.95
2529.00,100.95
2528.00,100.95
2527.00,100.95
2526.00,100.95
2525.00,100.96
2524.00,100.97
2523.00,100.97
2522.00,100.97
2521.00,100.97
2520.00,100.96
2519.00,100.96
2518.00,100.95
2517.00,100.95
2516.00,100.94
2515.00,100.95
2514.00,100.95
2513.00,100.95
2512.00,100.95
2511.00,100.95
2510.00,100.95
2509.00,100.95
2508.00,100.95
2507.00,100.95
2506.00,100.95
2505.00,100.95
2504.00,100.95
2503.00,100.95
2502.00,100.95
2501.00,100.95
2500.00,100.95
2499.00,100.95
2498.00,100.95
2497.00,100.94
2496.00,100.94
2495.00,100.95
2494.00,100.95
2493.00,100.96
2492.00,100.96
2491.00,100.96
2490.00,100.96
2489.00,100.96
2488.00,100.95
2487.00,100.95
2486.00,100.95
2485.00,100.95
2484.00,100.95
2483.00,100.94
2482.00,100.94
2481.00,100.94
2480.00,100.95
2479.00,100.95
2478.00,100.95
2477.00,100.95
2476.00,100.95
2475.00,100.95
2474.00,100.95
2473.00,100.95
2472.00,100.95
2471.00,100.95
2470.00,100.95
2469.00,100.94
2468.00,100.94
2467.00,100.94
2466.00,100.95
2465.00,100.95
2464.00,100.95
2463.00,100.95
2462.00,100.95
2461.00,100.95
2460.00,100.95
2459.00,100.94
2458.00,100.94
2457.00,100.94
2456.00,100.95
2455.00,100.95
2454.00,100.95
2453.00,100.95
2452.00,100.95
2451.00,100.94
2450.00,100.94
2449.00,100.94
2448.00,100.94
2447.00,100.94
2446.00,100.95
2445.00,100.95
2444.00,100.95
2443.00,100.95
2442.00,100.95
2441.00,100.95
2440.00,100.96
2439.00,100.96
2438.00,100.96
2437.00,100.96
2436.00,100.96
2435.00,100.96
2434.00,100.96
2433.00,100.96
2432.00,100.96
2431.00,100.96
2430.00,100.96
2429.00,100.96
2428.00,100.96
2427.00,100.95
2426.00,100.95
2425.00,100.94
2424.00,100.95
2423.00,100.95
2422.00,100.95
2421.00,100.95
2420.00,100.95
2419.00,100.95
2418.00,100.95
2417.00,100.95
2416.00,100.95
2415.00,100.96
2414.00,100.95
2413.00,100.95
2412.00,100.95
2411.00,100.95
2410.00,100.96
2409.00,100.96
2408.00,100.96
2407.00,100.95
2406.00,100.95
2405.00,100.94
2404.00,100.94
2403.00,100.94
2402.00,100.94
2401.00,100.94
2400.00,100.95
2399.00,100.95
2398.00,100.95
2397.00,100.94
2396.00,100.94
2395.00,100.94
2394.00,100.94
2393.00,100.94
2392.00,100.94
2391.00,100.94
2390.00,100.95
2389.00,100.95
2388.00,100.95
2387.00,100.95
2386.00,100.94
2385.00,100.94
2384.00,100.94
2383.00,100.94
2382.00,100.94
2381.00,100.95
2380.00,100.97
2379.00,100.99
2378.00,101.01
2377.00,101.03
2376.00,101.04
2375.00,101.04
2374.00,101.03
2373.00,101.02
2372.00,101.01
2371.00,101.00
2370.00,100.98
2369.00,100.97
2368.00,100.96
2367.00,100.95
2366.00,100.95
2365.00,100.95
2364.00,100.96
2363.00,100.97
2362.00,100.98
2361.00,100.98
2360.00,100.99
2359.00,101.00
2358.00,101.01
2357.00,101.02
2356.00,101.02
2355.00,101.02
2354.00,101.00
2353.00,100.99
2352.00,100.99
2351.00,100.99
2350.00,100.99
2349.00,100.99
2348.00,100.99
2347.00,100.99
2346.00,100.97
2345.00,100.95
2344.00,100.93
2343.00,100.94
2342.00,100.96
2341.00,100.98
2340.00,101.01
2339.00,101.03
2338.00,101.03
2337.00,101.02
2336.00,101.01
2335.00,101.01
2334.00,101.01
2333.00,101.01
2332.00,101.01
2331.00,101.01
2330.00,101.00
2329.00,100.99
2328.00,100.98
2327.00,100.97
2326.00,100.97
2325.00,100.98
2324.00,100.98
2323.00,100.98
2322.00,100.98
2321.00,100.98
2320.00,100.97
2319.00,100.97
2318.00,100.98
2317.00,100.98
2316.00,100.99
2315.00,100.99
2314.00,100.99
2313.00,100.99
2312.00,100.98
2311.00,100.97
2310.00,100.97
2309.00,100.97
2308.00,100.97
2307.00,100.97
2306.00,100.97
2305.00,100.97
2304.00,100.97
2303.00,100.97
2302.00,100.96
2301.00,100.96
2300.00,100.96
2299.00,100.96
2298.00,100.96
2297.00,100.95
2296.00,100.95
2295.00,100.94
2294.00,100.94
2293.00,100.95
2292.00,100.96
2291.00,100.97
2290.00,100.97
2289.00,100.97
2288.00,100.97
2287.00,100.96
2286.00,100.96
2285.00,100.96
2284.00,100.97
2283.00,100.97
2282.00,100.96
2281.00,100.96
2280.00,100.96
2279.00,100.97
2278.00,100.97
2277.00,100.97
2276.00,100.97
2275.00,100.97
2274.00,100.98
2273.00,100.98
2272.00,100.99
2271.00,100.99
2270.00,100.98
2269.00,100.98
2268.00,100.97
2267.00,100.96
2266.00,100.97
2265.00,100.98
2264.00,101.00
2263.00,101.00
2262.00,101.00
2261.00,100.99
2260.00,100.99
2259.00,100.98
2258.00,100.98
2257.00,100.97
2256.00,100.98
2255.00,100.98
2254.00,100.99
2253.00,100.99
2252.00,101.00
2251.00,101.01
2250.00,101.02
2249.00,101.02
2248.00,101.01
2247.00,101.00
2246.00,100.99
2245.00,100.99
2244.00,100.98
2243.00,100.98
2242.00,100.99
2241.00,100.99
2240.00,100.99
2239.00,100.98
2238.00,100.97
2237.00,100.97
2236.00,100.98
2235.00,100.98
2234.00,100.98
2233.00,100.98
2232.00,100.98
2231.00,100.98
2230.00,100.99
2229.00,101.00
2228.00,101.01
2227.00,101.00
2226.00,100.99
2225.00,100.97
2224.00,100.95
2223.00,100.96
2222.00,100.97
2221.00,100.99
2220.00,101.00
2219.00,101.00
2218.00,101.00
2217.00,101.00
2216.00,101.01
2215.00,101.02
2214.00,101.03
2213.00,101.03
2212.00,101.03
2211.00,101.02
2210.00,101.02
2209.00,101.01
2208.00,101.01
2207.00,101.00
2206.00,101.00
2205.00,101.00
2204.00,101.01
2203.00,101.03
2202.00,101.04
2201.00,101.05
2200.00,101.05
2199.00,101.04
2198.00,101.02
2197.00,101.01
2196.00,101.02
2195.00,101.03
2194.00,101.03
2193.00,101.01
2192.00,101.00
2191.00,100.99
2190.00,100.99
2189.00,101.00
2188.00,101.01
2187.00,101.01
2186.00,101.00
2185.00,100.99
2184.00,100.97
2183.00,100.97
2182.00,100.98
2181.00,100.99
2180.00,101.00
2179.00,101.01
2178.00,101.00
2177.00,101.00
2176.00,101.00
2175.00,101.00
2174.00,101.01
2173.00,101.03
2172.00,101.03
2171.00,101.02
2170.00,101.02
2169.00,101.03
2168.00,101.04
2167.00,101.04
2166.00,101.03
2165.00,101.01
2164.00,101.01
2163.00,101.02
2162.00,101.03
2161.00,101.03
2160.00,101.03
2159.00,101.03
2158.00,101.04
2157.00,101.04
2156.00,101.04
2155.00,101.04
2154.00,101.04
2153.00,101.03
2152.00,101.02
2151.00,101.03
2150.00,101.04
2149.00,101.05
2148.00,101.04
2147.00,101.02
2146.00,101.00
2145.00,100.99
2144.00,100.99
2143.00,100.98
2142.00,100.98
2141.00,100.97
2140.00,100.98
2139.00,101.00
2138.00,101.01
2137.00,101.01
2136.00,101.00
2135.00,101.00
2134.00,101.00
2133.00,101.01
2132.00,101.01
2131.00,101.00
2130.00,100.98
2129.00,100.98
2128.00,100.98
2127.00,101.00
2126.00,101.01
2125.00,101.03
2124.00,101.05
2123.00,101.05
2122.00,101.05
2121.00,101.04
2120.00,101.03
2119.00,101.03
2118.00,101.03
2117.00,101.03
2116.00,101.02
2115.00,101.01
2114.00,101.00
2113.00,100.99
2112.00,100.99
2111.00,101.00
2110.00,101.01
2109.00,101.01
2108.00,101.01
2107.00,101.01
2106.00,101.02
2105.00,101.03
2104.00,101.03
2103.00,101.02
2102.00,101.01
2101.00,101.00
2100.00,101.00
2099.00,101.00
2098.00,101.01
2097.00,101.01
2096.00,101.01
2095.00,101.00
2094.00,100.99
2093.00,100.99
2092.00,100.99
2091.00,100.99
2090.00,101.00
2089.00,101.00
2088.00,101.01
2087.00,101.01
2086.00,101.00
2085.00,101.00
2084.00,101.00
2083.00,101.00
2082.00,101.00
2081.00,101.00
2080.00,101.00
2079.00,101.00
2078.00,101.00
2077.00,101.01
2076.00,101.02
2075.00,101.02
2074.00,101.02
2073.00,101.01
2072.00,101.01
2071.00,101.00
2070.00,100.99
2069.00,100.98
2068.00,100.98
2067.00,100.99
2066.00,101.01
2065.00,101.02
2064.00,101.03
2063.00,101.03
2062.00,101.03
2061.00,101.02
2060.00,101.02
2059.00,101.03
2058.00,101.04
2057.00,101.04
2056.00,101.03
2055.00,101.02
2054.00,101.03
2053.00,101.04
2052.00,101.06
2051.00,101.07
2050.00,101.07
2049.00,101.05
2048.00,101.03
2047.00,101.01
2046.00,101.00
2045.00,101.00
2044.00,101.01
2043.00,101.02
2042.00,101.03
2041.00,101.03
2040.00,101.04
2039.00,101.04
2038.00,101.04
2037.00,101.04
2036.00,101.05
2035.00,101.06
2034.00,101.06
2033.00,101.05
2032.00,101.04
2031.00,101.04
2030.00,101.04
2029.00,101.03
2028.00,101.01
2027.00,101.00
2026.00,100.99
2025.00,101.00
2024.00,101.02
2023.00,101.02
2022.00,101.00
2021.00,100.98
2020.00,100.98
2019.00,100.98
2018.00,100.99
2017.00,101.00
2016.00,101.00
2015.00,101.00
2014.00,101.01
2013.00,101.01
2012.00,101.01
2011.00,101.01
2010.00,101.01
2009.00,101.02
2008.00,101.02
2007.00,101.02
2006.00,101.02
2005.00,101.01
2004.00,101.01
2003.00,101.01
2002.00,101.01
2001.00,101.02
2000.00,101.02
1999.00,101.02
1998.00,101.02
1997.00,101.01
1996.00,101.01
1995.00,101.01
1994.00,101.02
1993.00,101.04
1992.00,101.06
1991.00,101.07
1990.00,101.08
1989.00,101.07
1988.00,101.06
1987.00,101.03
1986.00,101.02
1985.00,101.01
1984.00,101.00
1983.00,100.99
1982.00,100.98
1981.00,100.98
1980.00,100.99
1979.00,101.01
1978.00,101.02
1977.00,101.02
1976.00,101.02
1975.00,101.03
1974.00,101.03
1973.00,101.03
1972.00,101.02
1971.00,101.00
1970.00,100.99
1969.00,100.99
1968.00,101.01
1967.00,101.03
1966.00,101.05
1965.00,101.07
1964.00,101.07
1963.00,101.06
1962.00,101.03
1961.00,101.00
1960.00,101.00
1959.00,101.01
1958.00,101.04
1957.00,101.05
1956.00,101.06
1955.00,101.06
1954.00,101.07
1953.00,101.07
1952.00,101.06
1951.00,101.04
1950.00,101.04
1949.00,101.03
1948.00,101.03
1947.00,101.03
1946.00,101.04
1945.00,101.05
1944.00,101.05
1943.00,101.03
1942.00,101.01
1941.00,100.99
1940.00,100.98
1939.00,101.00
1938.00,101.02
1937.00,101.03
1936.00,101.03
1935.00,101.03
1934.00,101.03
1933.00,101.03
1932.00,101.04
1931.00,101.05
1930.00,101.05
1929.00,101.04
1928.00,101.02
1927.00,101.01
1926.00,101.01
1925.00,101.00
1924.00,101.00
1923.00,101.01
1922.00,101.03
1921.00,101.04
1920.00,101.05
1919.00,101.05
1918.00,101.05
1917.00,101.04
1916.00,101.04
1915.00,101.04
1914.00,101.04
1913.00,101.04
1912.00,101.04
1911.00,101.04
1910.00,101.03
1909.00,101.03
1908.00,101.02
1907.00,101.01
1906.00,101.00
1905.00,101.00
1904.00,101.01
1903.00,101.01
1902.00,101.02
1901.00,101.02
1900.00,101.02
1899.00,101.02
1898.00,101.03
1897.00,101.03
1896.00,101.03
1895.00,101.03
1894.00,101.03
1893.00,101.02
1892.00,101.02
1891.00,101.02
1890.00,101.02
1889.00,101.02
1888.00,101.02
1887.00,101.03
1886.00,101.03
1885.00,101.03
1884.00,101.02
1883.00,101.02
1882.00,101.02
1881.00,101.02
1880.00,101.02
1879.00,101.01
1878.00,101.02
1877.00,101.02
1876.00,101.02
1875.00,101.02
1874.00,101.02
1873.00,101.01
1872.00,101.01
1871.00,101.01
1870.00,101.02
1869.00,101.03
1868.00,101.04
1867.00,101.04
1866.00,101.03
1865.00,101.02
1864.00,101.01
1863.00,101.01
1862.00,101.01
1861.00,101.01
1860.00,101.01
1859.00,101.01
1858.00,101.01
1857.00,101.02
1856.00,101.02
1855.00,101.01
1854.00,101.01
1853.00,101.00
1852.00,101.00
1851.00,101.01
1850.00,101.01
1849.00,101.02
1848.00,101.02
1847.00,101.01
1846.00,101.01
1845.00,101.00
1844.00,101.00
1843.00,101.01
1842.00,101.02
1841.00,101.02
1840.00,101.03
1839.00,101.03
1838.00,101.02
1837.00,101.02
1836.00,101.02
1835.00,101.02
1834.00,101.02
1833.00,101.01
1832.00,101.00
1831.00,101.00
1830.00,101.00
1829.00,101.00
1828.00,101.01
1827.00,101.01
1826.00,101.01
1825.00,101.02
1824.00,101.02
1823.00,101.02
1822.00,101.02
1821.00,101.02
1820.00,101.02
1819.00,101.02
1818.00,101.02
1817.00,101.02
1816.00,101.01
1815.00,101.02
1814.00,101.02
1813.00,101.02
1812.00,101.03
1811.00,101.02
1810.00,101.01
1809.00,101.00
1808.00,101.00
1807.00,101.00
1806.00,101.00
1805.00,101.01
1804.00,101.01
1803.00,101.01
1802.00,101.00
1801.00,101.00
1800.00,101.00
1799.00,101.01
1798.00,101.01
1797.00,101.01
1796.00,101.01
1795.00,101.01
1794.00,101.01
1793.00,101.01
1792.00,101.01
1791.00,101.02
1790.00,101.02
1789.00,101.01
1788.00,101.01
1787.00,101.01
1786.00,101.01
1785.00,101.01
1784.00,101.01
1783.00,101.00
1782.00,101.00
1781.00,101.00
1780.00,100.99
1779.00,101.00
1778.00,101.00
1777.00,101.00
1776.00,101.00
1775.00,101.00
1774.00,101.01
1773.00,101.00
1772.00,101.00
1771.00,101.00
1770.00,101.00
1769.00,101.01
1768.00,101.01
1767.00,101.01
1766.00,101.01
1765.00,101.01
1764.00,101.00
1763.00,101.00
1762.00,101.01
1761.00,101.01
1760.00,101.01
1759.00,101.02
1758.00,101.02
1757.00,101.02
1756.00,101.02
1755.00,101.03
1754.00,101.03
1753.00,101.02
1752.00,101.02
1751.00,101.01
1750.00,101.02
1749.00,101.02
1748.00,101.03
1747.00,101.04
1746.00,101.04
1745.00,101.04
1744.00,101.04
1743.00,101.04
1742.00,101.05
1741.00,101.05
1740.00,101.05
1739.00,101.05
1738.00,101.05
1737.00,101.04
1736.00,101.04
1735.00,101.04
1734.00,101.04
1733.00,101.04
1732.00,101.04
1731.00,101.04
1730.00,101.03
1729.00,101.03
1728.00,101.03
1727.00,101.03
1726.00,101.04
1725.00,101.04
1724.00,101.04
1723.00,101.04
1722.00,101.04
1721.00,101.03
1720.00,101.02
1719.00,101.02
1718.00,101.02
1717.00,101.03
1716.00,101.03
1715.00,101.04
1714.00,101.04
1713.00,101.04
1712.00,101.04
1711.00,101.04
1710.00,101.04
1709.00,101.03
1708.00,101.03
1707.00,101.03
1706.00,101.03
1705.00,101.03
1704.00,101.03
1703.00,101.03
1702.00,101.02
1701.00,101.02
1700.00,101.01
1699.00,101.01
1698.00,101.01
1697.00,101.01
1696.00,101.02
1695.00,101.02
1694.00,101.02
1693.00,101.02
1692.00,101.03
1691.00,101.03
1690.00,101.02
1689.00,101.02
1688.00,101.02
1687.00,101.02
1686.00,101.02
1685.00,101.02
1684.00,101.01
1683.00,101.01
1682.00,101.01
1681.00,101.01
1680.00,101.01
1679.00,101.01
1678.00,101.02
1677.00,101.02
1676.00,101.02
1675.00,101.03
1674.00,101.03
1673.00,101.03
1672.00,101.02
1671.00,101.02
1670.00,101.02
1669.00,101.02
1668.00,101.02
1667.00,101.02
1666.00,101.02
1665.00,101.03
1664.00,101.03
1663.00,101.03
1662.00,101.03
1661.00,101.03
1660.00,101.03
1659.00,101.03
1658.00,101.03
1657.00,101.03
1656.00,101.04
1655.00,101.03
1654.00,101.03
1653.00,101.03
1652.00,101.04
1651.00,101.04
1650.00,101.04
1649.00,101.04
1648.00,101.04
1647.00,101.03
1646.00,101.03
1645.00,101.03
1644.00,101.03
1643.00,101.03
1642.00,101.03
1641.00,101.03
1640.00,101.03
1639.00,101.03
1638.00,101.03
1637.00,101.02
1636.00,101.02
1635.00,101.04
1634.00,101.07
1633.00,101.09
1632.00,101.10
1631.00,101.09
1630.00,101.07
1629.00,101.04
1628.00,101.03
1627.00,101.03
1626.00,101.03
1625.00,101.04
1624.00,101.04
1623.00,101.04
1622.00,101.03
1621.00,101.03
1620.00,101.04
1619.00,101.05
1618.00,101.05
1617.00,101.05
1616.00,101.05
1615.00,101.04
1614.00,101.04
1613.00,101.03
1612.00,101.03
1611.00,101.02
1610.00,101.02
1609.00,101.02
1608.00,101.03
1607.00,101.03
1606.00,101.03
1605.00,101.03
1604.00,101.03
1603.00,101.03
1602.00,101.03
1601.00,101.04
1600.00,101.04
1599.00,101.04
1598.00,101.04
1597.00,101.04
1596.00,101.04
1595.00,101.04
1594.00,101.04
1593.00,101.04
1592.00,101.04
1591.00,101.03
1590.00,101.03
1589.00,101.03
1588.00,101.04
1587.00,101.04
1586.00,101.04
1585.00,101.04
1584.00,101.04
1583.00,101.04
1582.00,101.04
1581.00,101.04
1580.00,101.04
1579.00,101.04
1578.00,101.04
1577.00,101.04
1576.00,101.04
1575.00,101.03
1574.00,101.03
1573.00,101.03
1572.00,101.04
1571.00,101.04
1570.00,101.04
1569.00,101.04
1568.00,101.04
1567.00,101.04
1566.00,101.04
1565.00,101.04
1564.00,101.05
1563.00,101.05
1562.00,101.05
1561.00,101.05
1560.00,101.04
1559.00,101.04
1558.00,101.04
1557.00,101.04
1556.00,101.04
1555.00,101.04
1554.00,101.04
1553.00,101.05
1552.00,101.05
1551.00,101.05
1550.00,101.05
1549.00,101.05
1548.00,101.05
1547.00,101.05
1546.00,101.04
1545.00,101.04
1544.00,101.04
1543.00,101.04
1542.00,101.05
1541.00,101.05
1540.00,101.05
1539.00,101.05
1538.00,101.05
1537.00,101.05
1536.00,101.04
1535.00,101.04
1534.00,101.04
1533.00,101.03
1532.00,101.04
1531.00,101.04
1530.00,101.04
1529.00,101.03
1528.00,101.03
1527.00,101.03
1526.00,101.04
1525.00,101.04
1524.00,101.04
1523.00,101.05
1522.00,101.05
1521.00,101.05
1520.00,101.05
1519.00,101.04
1518.00,101.04
1517.00,101.04
1516.00,101.03
1515.00,101.04
1514.00,101.04
1513.00,101.05
1512.00,101.06
1511.00,101.06
1510.00,101.06
1509.00,101.07
1508.00,101.06
1507.00,101.06
1506.00,101.06
1505.00,101.06
1504.00,101.05
1503.00,101.05
1502.00,101.06
1501.00,101.06
1500.00,101.07
1499.00,101.07
1498.00,101.07
1497.00,101.05
1496.00,101.03
1495.00,101.02
1494.00,101.01
1493.00,101.01
1492.00,101.00
1491.00,101.00
1490.00,101.00
1489.00,101.00
1488.00,101.01
1487.00,101.01
1486.00,101.01
1485.00,101.01
1484.00,101.01
1483.00,101.01
1482.00,101.01
1481.00,101.01
1480.00,101.02
1479.00,101.02
1478.00,101.02
1477.00,101.02
1476.00,101.02
1475.00,101.03
1474.00,101.03
1473.00,101.02
1472.00,101.02
1471.00,101.02
1470.00,101.02
1469.00,101.03
1468.00,101.03
1467.00,101.03
1466.00,101.03
1465.00,101.03
1464.00,101.03
1463.00,101.03
1462.00,101.03
1461.00,101.03
1460.00,101.03
1459.00,101.03
1458.00,101.03
1457.00,101.03
1456.00,101.03
1455.00,101.03
1454.00,101.03
1453.00,101.03
1452.00,101.02
1451.00,101.02
1450.00,101.01
1449.00,101.00
1448.00,101.01
1447.00,101.01
1446.00,101.02
1445.00,101.02
1444.00,101.02
1443.00,101.02
1442.00,101.02
1441.00,101.02
1440.00,101.02
1439.00,101.03
1438.00,101.03
1437.00,101.03
1436.00,101.02
1435.00,101.02
1434.00,101.02
1433.00,101.02
1432.00,101.02
1431.00,101.02
1430.00,101.02
1429.00,101.01
1428.00,101.01
1427.00,101.01
1426.00,101.01
1425.00,101.01
1424.00,101.01
1423.00,101.01
1422.00,101.00
1421.00,100.99
1420.00,100.98
1419.00,100.97
1418.00,100.97
1417.00,100.97
1416.00,100.97
1415.00,100.96
1414.00,100.96
1413.00,100.96
1412.00,100.96
1411.00,100.95
1410.00,100.95
1409.00,100.95
1408.00,100.95
1407.00,100.96
1406.00,100.96
1405.00,100.96
1404.00,100.96
1403.00,100.95
1402.00,100.96
1401.00,100.96
1400.00,100.96
1399.00,100.95
1398.00,100.94
1397.00,100.93
1396.00,100.91
1395.00,100.90
1394.00,100.90
1393.00,100.91
1392.00,100.92
1391.00,100.94
1390.00,100.95
1389.00,100.95
1388.00,100.95
1387.00,100.95
1386.00,100.95
1385.00,100.94
1384.00,100.94
1383.00,100.94
1382.00,100.93
1381.00,100.93
1380.00,100.94
1379.00,100.94
1378.00,100.95
1377.00,100.95
1376.00,100.95
1375.00,100.96
1374.00,100.96
1373.00,100.97
1372.00,100.98
1371.00,100.98
1370.00,100.98
1369.00,100.99
1368.00,100.99
1367.00,101.00
1366.00,101.00
1365.00,101.01
1364.00,101.01
1363.00,101.01
1362.00,101.01
1361.00,101.02
1360.00,101.02
1359.00,101.02
1358.00,101.02
1357.00,101.02
1356.00,101.02
1355.00,101.03
1354.00,101.04
1353.00,101.04
1352.00,101.04
1351.00,101.05
1350.00,101.05
1349.00,101.05
1348.00,101.05
1347.00,101.04
1346.00,101.04
1345.00,101.04
1344.00,101.05
1343.00,101.04
1342.00,101.04
1341.00,101.03
1340.00,101.02
1339.00,101.02
1338.00,101.03
1337.00,101.03
1336.00,101.03
1335.00,101.03
1334.00,101.03
1333.00,101.03
1332.00,101.03
1331.00,101.03
1330.00,101.03
1329.00,101.03
1328.00,101.03
1327.00,101.03
1326.00,101.03
1325.00,101.02
1324.00,101.02
1323.00,101.02
1322.00,101.02
1321.00,101.03
1320.00,101.03
1319.00,101.03
1318.00,101.03
1317.00,101.02
1316.00,101.02
1315.00,101.02
1314.00,101.02
1313.00,101.02
1312.00,101.02
1311.00,101.02
1310.00,101.02
1309.00,101.02
1308.00,101.03
1307.00,101.03
1306.00,101.03
1305.00,101.04
1304.00,101.04
1303.00,101.04
1302.00,101.04
1301.00,101.04
1300.00,101.04
1299.00,101.03
1298.00,101.03
1297.00,101.03
1296.00,101.03
1295.00,101.03
1294.00,101.03
1293.00,101.04
1292.00,101.04
1291.00,101.05
1290.00,101.05
1289.00,101.05
1288.00,101.04
1287.00,101.03
1286.00,101.03
1285.00,101.04
1284.00,101.04
1283.00,101.05
1282.00,101.05
1281.00,101.05
1280.00,101.06
1279.00,101.06
1278.00,101.07
1277.00,101.06
1276.00,101.05
1275.00,101.04
1274.00,101.03
1273.00,101.03
1272.00,101.02
1271.00,101.01
1270.00,101.01
1269.00,101.01
1268.00,101.01
1267.00,101.00
1266.00,101.00
1265.00,100.99
1264.00,100.99
1263.00,100.99
1262.00,100.99
1261.00,100.99
1260.00,100.98
1259.00,100.97
1258.00,100.97
1257.00,100.97
1256.00,100.97
1255.00,100.97
1254.00,100.97
1253.00,100.97
1252.00,100.97
1251.00,100.97
1250.00,100.96
1249.00,100.96
1248.00,100.95
1247.00,100.95
1246.00,100.96
1245.00,100.96
1244.00,100.96
1243.00,100.95
1242.00,100.95
1241.00,100.95
1240.00,100.95
1239.00,100.95
1238.00,100.95
1237.00,100.95
1236.00,100.95
1235.00,100.95
1234.00,100.95
1233.00,100.94
1232.00,100.94
1231.00,100.94
1230.00,100.95
1229.00,100.95
1228.00,100.95
1227.00,100.95
1226.00,100.96
1225.00,100.96
1224.00,100.97
1223.00,100.98
1222.00,100.98
1221.00,100.99
1220.00,101.00
1219.00,101.00
1218.00,101.01
1217.00,101.01
1216.00,101.01
1215.00,101.02
1214.00,101.02
1213.00,101.03
1212.00,101.04
1211.00,101.04
1210.00,101.04
1209.00,101.03
1208.00,101.03
1207.00,101.03
1206.00,101.03
1205.00,101.04
1204.00,101.03
1203.00,101.03
1202.00,101.03
1201.00,101.04
1200.00,101.04
1199.00,101.05
1198.00,101.05
1197.00,101.06
1196.00,101.06
1195.00,101.05
1194.00,101.05
1193.00,101.05
1192.00,101.05
1191.00,101.05
1190.00,101.06
1189.00,101.06
1188.00,101.07
1187.00,101.07
1186.00,101.08
1185.00,101.08
1184.00,101.09
1183.00,101.09
1182.00,101.09
1181.00,101.09
1180.00,101.09
1179.00,101.09
1178.00,101.10
1177.00,101.10
1176.00,101.11
1175.00,101.11
1174.00,101.11
1173.00,101.11
1172.00,101.11
1171.00,101.11
1170.00,101.11
1169.00,101.12
1168.00,101.12
1167.00,101.12
1166.00,101.12
1165.00,101.12
1164.00,101.11
1163.00,101.11
1162.00,101.11
1161.00,101.11
1160.00,101.10
1159.00,101.10
1158.00,101.11
1157.00,101.11
1156.00,101.11
1155.00,101.10
1154.00,101.10
1153.00,101.10
1152.00,101.10
1151.00,101.10
1150.00,101.11
1149.00,101.11
1148.00,101.11
1147.00,101.11
1146.00,101.11
1145.00,101.12
1144.00,101.13
1143.00,101.13
1142.00,101.14
1141.00,101.13
1140.00,101.13
1139.00,101.13
1138.00,101.13
1137.00,101.13
1136.00,101.14
1135.00,101.14
1134.00,101.15
1133.00,101.15
1132.00,101.15
1131.00,101.16
1130.00,101.16
1129.00,101.16
1128.00,101.16
1127.00,101.15
1126.00,101.14
1125.00,101.13
1124.00,101.13
1123.00,101.12
1122.00,101.12
1121.00,101.12
1120.00,101.11
1119.00,101.10
1118.00,101.10
1117.00,101.09
1116.00,101.09
1115.00,101.09
1114.00,101.09
1113.00,101.09
1112.00,101.08
1111.00,101.07
1110.00,101.06
1109.00,101.05
1108.00,101.04
1107.00,101.04
1106.00,101.03
1105.00,101.02
1104.00,101.01
1103.00,100.99
1102.00,100.98
1101.00,100.98
1100.00,100.99
1099.00,100.99
1098.00,100.99
1097.00,100.99
1096.00,100.99
1095.00,100.98
1094.00,100.97
1093.00,100.95
1092.00,100.92
1091.00,100.91
1090.00,100.89
1089.00,100.89
1088.00,100.88
1087.00,100.87
1086.00,100.86
1085.00,100.85
1084.00,100.84
1083.00,100.83
1082.00,100.81
1081.00,100.79
1080.00,100.78
1079.00,100.76
1078.00,100.75
1077.00,100.74
1076.00,100.72
1075.00,100.72
1074.00,100.73
1073.00,100.75
1072.00,100.75
1071.00,100.75
1070.00,100.73
1069.00,100.71
1068.00,100.68
1067.00,100.66
1066.00,100.66
1065.00,100.68
1064.00,100.70
1063.00,100.73
1062.00,100.75
1061.00,100.76
1060.00,100.75
1059.00,100.74
1058.00,100.73
1057.00,100.73
1056.00,100.74
1055.00,100.75
1054.00,100.76
1053.00,100.77
1052.00,100.77
1051.00,100.78
1050.00,100.77
1049.00,100.77
1048.00,100.76
1047.00,100.75
1046.00,100.75
1045.00,100.75
1044.00,100.75
1043.00,100.76
1042.00,100.77
1041.00,100.78
1040.00,100.79
1039.00,100.80
1038.00,100.82
1037.00,100.84
1036.00,100.85
1035.00,100.87
1034.00,100.88
1033.00,100.89
1032.00,100.89
1031.00,100.90
1030.00,100.91
1029.00,100.91
1028.00,100.91
1027.00,100.93
1026.00,100.95
1025.00,100.98
1024.00,101.01
1023.00,101.04
1022.00,101.06
1021.00,101.08
1020.00,101.10
1019.00,101.11
1018.00,101.12
1017.00,101.13
1016.00,101.14
1015.00,101.14
1014.00,101.13
1013.00,101.11
1012.00,101.09
1011.00,101.06
1010.00,101.04
1009.00,101.03
1008.00,101.02
1007.00,101.02
1006.00,101.02
1005.00,101.03
1004.00,101.03
1003.00,101.04
1002.00,101.04
1001.00,101.05
1000.00,101.05
999.00,101.06
998.00,101.06
997.00,101.06
996.00,101.07
995.00,101.07
994.00,101.07
993.00,101.07
992.00,101.07
991.00,101.07
990.00,101.07
989.00,101.07
988.00,101.07
987.00,101.07
986.00,101.07
985.00,101.07
984.00,101.07
983.00,101.07
982.00,101.08
981.00,101.08
980.00,101.08
979.00,101.07
978.00,101.06
977.00,101.05
976.00,101.05
975.00,101.06
974.00,101.06
973.00,101.06
972.00,101.07
971.00,101.08
970.00,101.08
969.00,101.08
968.00,101.08
967.00,101.08
966.00,101.08
965.00,101.09
964.00,101.09
963.00,101.09
962.00,101.10
961.00,101.10
960.00,101.10
959.00,101.09
958.00,101.09
957.00,101.09
956.00,101.09
955.00,101.10
954.00,101.10
953.00,101.09
952.00,101.09
951.00,101.09
950.00,101.10
949.00,101.10
948.00,101.11
947.00,101.10
946.00,101.10
945.00,101.10
944.00,101.11
943.00,101.11
942.00,101.11
941.00,101.10
940.00,101.09
939.00,101.09
938.00,101.09
937.00,101.09
936.00,101.10
935.00,101.10
934.00,101.11
933.00,101.11
932.00,101.11
931.00,101.12
930.00,101.12
929.00,101.11
928.00,101.11
927.00,101.11
926.00,101.11
925.00,101.12
924.00,101.13
923.00,101.14
922.00,101.14
921.00,101.15
920.00,101.14
919.00,101.13
918.00,101.12
917.00,101.11
916.00,101.11
915.00,101.10
914.00,101.10
913.00,101.11
912.00,101.11
911.00,101.12
910.00,101.12
909.00,101.12
908.00,101.12
907.00,101.11
906.00,101.10
905.00,101.10
904.00,101.09
903.00,101.10
902.00,101.11
901.00,101.12
900.00,101.12
899.00,101.12
898.00,101.12
897.00,101.12
896.00,101.12
895.00,101.11
894.00,101.10
893.00,101.09
892.00,101.08
891.00,101.08
890.00,101.08
889.00,101.08
888.00,101.08
887.00,101.09
886.00,101.10
885.00,101.11
884.00,101.11
883.00,101.10
882.00,101.11
881.00,101.12
880.00,101.12
879.00,101.12
878.00,101.12
877.00,101.11
876.00,101.11
875.00,101.11
874.00,101.11
873.00,101.11
872.00,101.11
871.00,101.11
870.00,101.12
869.00,101.12
868.00,101.12
867.00,101.12
866.00,101.12
865.00,101.12
864.00,101.12
863.00,101.11
862.00,101.10
861.00,101.11
860.00,101.12
859.00,101.13
858.00,101.14
857.00,101.13
856.00,101.12
855.00,101.12
854.00,101.13
853.00,101.14
852.00,101.16
851.00,101.16
850.00,101.16
849.00,101.16
848.00,101.16
847.00,101.17
846.00,101.19
845.00,101.20
844.00,101.20
843.00,101.19
842.00,101.18
841.00,101.17
840.00,101.16
839.00,101.16
838.00,101.17
837.00,101.18
836.00,101.19
835.00,101.20
834.00,101.20
833.00,101.20
832.00,101.18
831.00,101.17
830.00,101.16
829.00,101.16
828.00,101.17
827.00,101.19
826.00,101.21
825.00,101.22
824.00,101.22
823.00,101.22
822.00,101.21
821.00,101.19
820.00,101.17
819.00,101.17
818.00,101.17
817.00,101.17
816.00,101.18
815.00,101.19
814.00,101.19
813.00,101.20
812.00,101.20
811.00,101.20
810.00,101.20
809.00,101.20
808.00,101.21
807.00,101.21
806.00,101.20
805.00,101.19
804.00,101.18
803.00,101.16
802.00,101.16
801.00,101.17
800.00,101.18
799.00,101.19
798.00,101.18
797.00,101.16
796.00,101.15
795.00,101.15
794.00,101.16
793.00,101.18
792.00,101.19
791.00,101.20
790.00,101.21
789.00,101.21
788.00,101.21
787.00,101.21
786.00,101.21
785.00,101.20
784.00,101.20
783.00,101.20
782.00,101.19
781.00,101.18
780.00,101.17
779.00,101.17
778.00,101.17
777.00,101.17
776.00,101.18
775.00,101.20
774.00,101.20
773.00,101.20
772.00,101.20
771.00,101.20
770.00,101.21
769.00,101.21
768.00,101.22
767.00,101.22
766.00,101.23
765.00,101.22
764.00,101.21
763.00,101.20
762.00,101.20
761.00,101.20
760.00,101.21
759.00,101.21
758.00,101.20
757.00,101.19
756.00,101.18
755.00,101.18
754.00,101.19
753.00,101.20
752.00,101.22
751.00,101.23
750.00,101.24
749.00,101.24
748.00,101.22
747.00,101.20
746.00,101.18
745.00,101.18
744.00,101.19
743.00,101.21
742.00,101.23
741.00,101.25
740.00,101.25
739.00,101.25
738.00,101.25
737.00,101.24
736.00,101.22
735.00,101.22
734.00,101.21
733.00,101.21
732.00,101.22
731.00,101.24
730.00,101.26
729.00,101.28
728.00,101.28
727.00,101.27
726.00,101.26
725.00,101.26
724.00,101.26
723.00,101.26
722.00,101.26
721.00,101.26
720.00,101.26
719.00,101.26
718.00,101.26
717.00,101.26
716.00,101.24
715.00,101.23
714.00,101.22
713.00,101.22
712.00,101.23
711.00,101.23
710.00,101.24
709.00,101.24
708.00,101.24
707.00,101.23
706.00,101.22
705.00,101.21
704.00,101.20
703.00,101.20
702.00,101.21
701.00,101.23
700.00,101.25
699.00,101.27
698.00,101.26
697.00,101.26
696.00,101.26
695.00,101.27
694.00,101.28
693.00,101.27
692.00,101.26
691.00,101.24
690.00,101.24
689.00,101.24
688.00,101.22
687.00,101.21
686.00,101.21
685.00,101.21
684.00,101.23
683.00,101.26
682.00,101.29
681.00,101.32
680.00,101.33
679.00,101.34
678.00,101.33
677.00,101.30
676.00,101.28
675.00,101.28
674.00,101.30
673.00,101.34
672.00,101.37
671.00,101.41
670.00,101.46
669.00,101.49
668.00,101.45
667.00,101.34
666.00,101.25
665.00,101.23
664.00,101.24
663.00,101.26
662.00,101.29
661.00,101.32
660.00,101.33
659.00,101.32
658.00,101.32
657.00,101.32
656.00,101.31
655.00,101.30
654.00,101.28
653.00,101.24
652.00,101.18
651.00,101.14
650.00,101.12
