Created as New Dataset,Sample 301 By iruser Date Friday, March 13 2026
cm-1,%T
4200.00,100.28
4199.00,100.28
4198.00,100.28
4197.00,100.27
4196.00,100.26
4195.00,100.26
4194.00,100.26
4193.00,100.27
4192.00,100.27
4191.00,100.27
4190.00,100.27
4189.00,100.28
4188.00,100.28
4187.00,100.27
4186.00,100.27
4185.00,100.27
4184.00,100.27
4183.00,100.27
4182.00,100.27
4181.00,100.26
4180.00,100.26
4179.00,100.26
4178.00,100.27
4177.00,100.27
4176.00,100.27
4175.00,100.27
4174.00,100.27
4173.00,100.26
4172.00,100.26
4171.00,100.26
4170.00,100.26
4169.00,100.26
4168.00,100.26
4167.00,100.26
4166.00,100.26
4165.00,100.26
4164.00,100.26
4163.00,100.26
4162.00,100.26
4161.00,100.26
4160.00,100.27
4159.00,100.27
4158.00,100.27
4157.00,100.27
4156.00,100.27
4155.00,100.27
4154.00,100.27
4153.00,100.28
4152.00,100.28
4151.00,100.28
4150.00,100.28
4149.00,100.28
4148.00,100.27
4147.00,100.27
4146.00,100.26
4145.00,100.26
4144.00,100.25
4143.00,100.25
4142.00,100.25
4141.00,100.24
4140.00,100.25
4139.00,100.25
4138.00,100.25
4137.00,100.25
4136.00,100.25
4135.00,100.25
4134.00,100.25
4133.00,100.25
4132.00,100.26
4131.00,100.26
4130.00,100.26
4129.00,100.27
4128.00,100.26
4127.00,100.26
4126.00,100.25
4125.00,100.25
4124.00,100.25
4123.00,100.25
4122.00,100.26
4121.00,100.26
4120.00,100.26
4119.00,100.25
4118.00,100.25
4117.00,100.25
4116.00,100.25
4115.00,100.25
4114.00,100.25
4113.00,100.25
4112.00,100.25
4111.00,100.24
4110.00,100.24
4109.00,100.24
4108.00,100.24
4107.00,100.24
4106.00,100.24
4105.00,100.24
4104.00,100.25
4103.00,100.25
4102.00,100.24
4101.00,100.24
4100.00,100.24
4099.00,100.24
4098.00,100.23
4097.00,100.24
4096.00,100.24
4095.00,100.24
4094.00,100.25
4093.00,100.25
4092.00,100.25
4091.00,100.26
4090.00,100.26
4089.00,100.26
4088.00,100.26
4087.00,100.25
4086.00,100.25
4085.00,100.25
4084.00,100.24
4083.00,100.24
4082.00,100.23
4081.00,100.23
4080.00,100.23
4079.00,100.23
4078.00,100.24
4077.00,100.24
4076.00,100.24
4075.00,100.24
4074.00,100.23
4073.00,100.23
4072.00,100.23
4071.00,100.23
4070.00,100.24
4069.00,100.24
4068.00,100.24
4067.00,100.24
4066.00,100.24
4065.00,100.24
4064.00,100.23
4063.00,100.23
4062.00,100.23
4061.00,100.24
4060.00,100.24
4059.00,100.24
4058.00,100.24
4057.00,100.24
4056.00,100.24
4055.00,100.24
4054.00,100.24
4053.00,100.24
4052.00,100.24
4051.00,100.23
4050.00,100.23
4049.00,100.22
4048.00,100.23
4047.00,100.23
4046.00,100.23
4045.00,100.24
4044.00,100.24
4043.00,100.24
4042.00,100.24
4041.00,100.24
4040.00,100.23
4039.00,100.24
4038.00,100.24
4037.00,100.24
4036.00,100.24
4035.00,100.24
4034.00,100.24
4033.00,100.23
4032.00,100.23
4031.00,100.22
4030.00,100.22
4029.00,100.22
4028.00,100.21
4027.00,100.21
4026.00,100.22
4025.00,100.22
4024.00,100.22
4023.00,100.22
4022.00,100.23
4021.00,100.23
4020.00,100.24
4019.00,100.24
4018.00,100.23
4017.00,100.23
4016.00,100.22
4015.00,100.22
4014.00,100.22
4013.00,100.22
4012.00,100.22
4011.00,100.22
4010.00,100.22
4009.00,100.23
4008.00,100.23
4007.00,100.23
4006.00,100.23
4005.00,100.23
4004.00,100.22
4003.00,100.22
4002.00,100.22
4001.00,100.22
4000.00,100.22
3999.00,100.22
3998.00,100.22
3997.00,100.22
3996.00,100.22
3995.00,100.22
3994.00,100.23
3993.00,100.23
3992.00,100.22
3991.00,100.22
3990.00,100.22
3989.00,100.22
3988.00,100.22
3987.00,100.22
3986.00,100.22
3985.00,100.22
3984.00,100.22
3983.00,100.22
3982.00,100.22
3981.00,100.22
3980.00,100.21
3979.00,100.21
3978.00,100.21
3977.00,100.21
3976.00,100.21
3975.00,100.22
3974.00,100.22
3973.00,100.22
3972.00,100.21
3971.00,100.21
3970.00,100.21
3969.00,100.21
3968.00,100.21
3967.00,100.22
3966.00,100.22
3965.00,100.22
3964.00,100.22
3963.00,100.22
3962.00,100.22
3961.00,100.22
3960.00,100.22
3959.00,100.22
3958.00,100.22
3957.00,100.22
3956.00,100.22
3955.00,100.22
3954.00,100.21
3953.00,100.21
3952.00,100.21
3951.00,100.21
3950.00,100.22
3949.00,100.22
3948.00,100.22
3947.00,100.22
3946.00,100.22
3945.00,100.22
3944.00,100.22
3943.00,100.22
3942.00,100.23
3941.00,100.23
3940.00,100.23
3939.00,100.23
3938.00,100.23
3937.00,100.22
3936.00,100.22
3935.00,100.22
3934.00,100.22
3933.00,100.22
3932.00,100.22
3931.00,100.22
3930.00,100.22
3929.00,100.22
3928.00,100.22
3927.00,100.22
3926.00,100.23
3925.00,100.23
3924.00,100.23
3923.00,100.23
3922.00,100.22
3921.00,100.22
3920.00,100.21
3919.00,100.21
3918.00,100.21
3917.00,100.22
3916.00,100.22
3915.00,100.22
3914.00,100.21
3913.00,100.21
3912.00,100.21
3911.00,100.21
3910.00,100.21
3909.00,100.21
3908.00,100.21
3907.00,100.21
3906.00,100.21
3905.00,100.21
3904.00,100.21
3903.00,100.20
3902.00,100.19
3901.00,100.19
3900.00,100.20
3899.00,100.20
3898.00,100.20
3897.00,100.21
3896.00,100.21
3895.00,100.21
3894.00,100.22
3893.00,100.22
3892.00,100.22
3891.00,100.22
3890.00,100.21
3889.00,100.20
3888.00,100.20
3887.00,100.20
3886.00,100.21
3885.00,100.22
3884.00,100.22
3883.00,100.21
3882.00,100.21
3881.00,100.21
3880.00,100.22
3879.00,100.22
3878.00,100.22
3877.00,100.22
3876.00,100.22
3875.00,100.22
3874.00,100.22
3873.00,100.22
3872.00,100.21
3871.00,100.21
3870.00,100.20
3869.00,100.20
3868.00,100.20
3867.00,100.20
3866.00,100.20
3865.00,100.21
3864.00,100.21
3863.00,100.21
3862.00,100.21
3861.00,100.21
3860.00,100.21
3859.00,100.22
3858.00,100.22
3857.00,100.22
3856.00,100.21
3855.00,100.21
3854.00,100.21
3853.00,100.21
3852.00,100.20
3851.00,100.20
3850.00,100.20
3849.00,100.21
3848.00,100.22
3847.00,100.22
3846.00,100.23
3845.00,100.23
3844.00,100.23
3843.00,100.23
3842.00,100.22
3841.00,100.22
3840.00,100.21
3839.00,100.22
3838.00,100.22
3837.00,100.22
3836.00,100.22
3835.00,100.22
3834.00,100.21
3833.00,100.21
3832.00,100.21
3831.00,100.22
3830.00,100.22
3829.00,100.21
3828.00,100.21
3827.00,100.21
3826.00,100.21
3825.00,100.21
3824.00,100.20
3823.00,100.19
3822.00,100.19
3821.00,100.20
3820.00,100.20
3819.00,100.20
3818.00,100.20
3817.00,100.21
3816.00,100.21
3815.00,100.21
3814.00,100.21
3813.00,100.21
3812.00,100.22
3811.00,100.22
3810.00,100.22
3809.00,100.22
3808.00,100.22
3807.00,100.21
3806.00,100.21
3805.00,100.20
3804.00,100.20
3803.00,100.20
3802.00,100.21
3801.00,100.22
3800.00,100.22
3799.00,100.22
3798.00,100.22
3797.00,100.22
3796.00,100.22
3795.00,100.22
3794.00,100.23
3793.00,100.23
3792.00,100.23
3791.00,100.22
3790.00,100.22
3789.00,100.22
3788.00,100.23
3787.00,100.23
3786.00,100.24
3785.00,100.24
3784.00,100.23
3783.00,100.23
3782.00,100.22
3781.00,100.22
3780.00,100.22
3779.00,100.23
3778.00,100.23
3777.00,100.23
3776.00,100.23
3775.00,100.23
3774.00,100.23
3773.00,100.23
3772.00,100.23
3771.00,100.23
3770.00,100.22
3769.00,100.22
3768.00,100.22
3767.00,100.22
3766.00,100.22
3765.00,100.23
3764.00,100.23
3763.00,100.23
3762.00,100.23
3761.00,100.23
3760.00,100.22
3759.00,100.22
3758.00,100.22
3757.00,100.22
3756.00,100.21
3755.00,100.21
3754.00,100.21
3753.00,100.21
3752.00,100.21
3751.00,100.20
3750.00,100.20
3749.00,100.20
3748.00,100.20
3747.00,100.20
3746.00,100.20
3745.00,100.21
3744.00,100.21
3743.00,100.21
3742.00,100.21
3741.00,100.21
3740.00,100.21
3739.00,100.20
3738.00,100.20
3737.00,100.20
3736.00,100.21
3735.00,100.21
3734.00,100.21
3733.00,100.21
3732.00,100.21
3731.00,100.21
3730.00,100.21
3729.00,100.22
3728.00,100.22
3727.00,100.22
3726.00,100.22
3725.00,100.22
3724.00,100.22
3723.00,100.22
3722.00,100.22
3721.00,100.22
3720.00,100.22
3719.00,100.22
3718.00,100.22
3717.00,100.22
3716.00,100.22
3715.00,100.22
3714.00,100.22
3713.00,100.22
3712.00,100.22
3711.00,100.22
3710.00,100.22
3709.00,100.21
3708.00,100.21
3707.00,100.21
3706.00,100.21
3705.00,100.22
3704.00,100.22
3703.00,100.22
3702.00,100.23
3701.00,100.23
3700.00,100.23
3699.00,100.23
3698.00,100.22
3697.00,100.22
3696.00,100.22
3695.00,100.21
3694.00,100.21
3693.00,100.21
3692.00,100.21
3691.00,100.21
3690.00,100.21
3689.00,100.21
3688.00,100.21
3687.00,100.21
3686.00,100.21
3685.00,100.21
3684.00,100.22
3683.00,100.22
3682.00,100.22
3681.00,100.22
3680.00,100.22
3679.00,100.22
3678.00,100.22
3677.00,100.22
3676.00,100.22
3675.00,100.22
3674.00,100.22
3673.00,100.21
3672.00,100.21
3671.00,100.22
3670.00,100.22
3669.00,100.22
3668.00,100.21
3667.00,100.22
3666.00,100.22
3665.00,100.23
3664.00,100.23
3663.00,100.23
3662.00,100.24
3661.00,100.23
3660.00,100.23
3659.00,100.23
3658.00,100.22
3657.00,100.22
3656.00,100.22
3655.00,100.22
3654.00,100.22
3653.00,100.22
3652.00,100.22
3651.00,100.21
3650.00,100.21
3649.00,100.21
3648.00,100.21
3647.00,100.22
3646.00,100.22
3645.00,100.22
3644.00,100.23
3643.00,100.23
3642.00,100.22
3641.00,100.22
3640.00,100.22
3639.00,100.23
3638.00,100.23
3637.00,100.23
3636.00,100.23
3635.00,100.23
3634.00,100.22
3633.00,100.22
3632.00,100.22
3631.00,100.21
3630.00,100.22
3629.00,100.23
3628.00,100.23
3627.00,100.22
3626.00,100.22
3625.00,100.22
3624.00,100.22
3623.00,100.22
3622.00,100.22
3621.00,100.23
3620.00,100.23
3619.00,100.24
3618.00,100.24
3617.00,100.23
3616.00,100.23
3615.00,100.23
3614.00,100.23
3613.00,100.24
3612.00,100.24
3611.00,100.23
3610.00,100.23
3609.00,100.24
3608.00,100.24
3607.00,100.23
3606.00,100.23
3605.00,100.22
3604.00,100.22
3603.00,100.21
3602.00,100.21
3601.00,100.21
3600.00,100.22
3599.00,100.22
3598.00,100.22
3597.00,100.22
3596.00,100.22
3595.00,100.22
3594.00,100.23
3593.00,100.23
3592.00,100.22
3591.00,100.22
3590.00,100.21
3589.00,100.21
3588.00,100.21
3587.00,100.22
3586.00,100.23
3585.00,100.24
3584.00,100.24
3583.00,100.23
3582.00,100.23
3581.00,100.23
3580.00,100.23
3579.00,100.23
3578.00,100.23
3577.00,100.23
3576.00,100.23
3575.00,100.23
3574.00,100.23
3573.00,100.23
3572.00,100.23
3571.00,100.23
3570.00,100.23
3569.00,100.22
3568.00,100.22
3567.00,100.22
3566.00,100.22
3565.00,100.22
3564.00,100.22
3563.00,100.22
3562.00,100.22
3561.00,100.22
3560.00,100.22
3559.00,100.23
3558.00,100.23
3557.00,100.22
3556.00,100.22
3555.00,100.22
3554.00,100.21
3553.00,100.21
3552.00,100.22
3551.00,100.22
3550.00,100.22
3549.00,100.22
3548.00,100.22
3547.00,100.22
3546.00,100.23
3545.00,100.23
3544.00,100.23
3543.00,100.23
3542.00,100.23
3541.00,100.22
3540.00,100.22
3539.00,100.22
3538.00,100.22
3537.00,100.21
3536.00,100.21
3535.00,100.21
3534.00,100.22
3533.00,100.22
3532.00,100.22
3531.00,100.22
3530.00,100.22
3529.00,100.22
3528.00,100.22
3527.00,100.22
3526.00,100.22
3525.00,100.22
3524.00,100.22
3523.00,100.22
3522.00,100.22
3521.00,100.22
3520.00,100.22
3519.00,100.22
3518.00,100.22
3517.00,100.22
3516.00,100.22
3515.00,100.21
3514.00,100.21
3513.00,100.21
3512.00,100.21
3511.00,100.21
3510.00,100.21
3509.00,100.21
3508.00,100.20
3507.00,100.20
3506.00,100.21
3505.00,100.21
3504.00,100.22
3503.00,100.23
3502.00,100.23
3501.00,100.24
3500.00,100.23
3499.00,100.23
3498.00,100.22
3497.00,100.22
3496.00,100.21
3495.00,100.21
3494.00,100.21
3493.00,100.21
3492.00,100.21
3491.00,100.22
3490.00,100.22
3489.00,100.21
3488.00,100.21
3487.00,100.21
3486.00,100.21
3485.00,100.21
3484.00,100.21
3483.00,100.22
3482.00,100.22
3481.00,100.23
3480.00,100.23
3479.00,100.23
3478.00,100.22
3477.00,100.22
3476.00,100.21
3475.00,100.21
3474.00,100.21
3473.00,100.21
3472.00,100.22
3471.00,100.22
3470.00,100.21
3469.00,100.21
3468.00,100.20
3467.00,100.20
3466.00,100.20
3465.00,100.21
3464.00,100.21
3463.00,100.21
3462.00,100.20
3461.00,100.20
3460.00,100.20
3459.00,100.21
3458.00,100.21
3457.00,100.21
3456.00,100.20
3455.00,100.20
3454.00,100.20
3453.00,100.20
3452.00,100.20
3451.00,100.20
3450.00,100.20
3449.00,100.20
3448.00,100.20
3447.00,100.20
3446.00,100.20
3445.00,100.20
3444.00,100.20
3443.00,100.19
3442.00,100.20
3441.00,100.20
3440.00,100.20
3439.00,100.21
3438.00,100.21
3437.00,100.21
3436.00,100.21
3435.00,100.20
3434.00,100.20
3433.00,100.19
3432.00,100.19
3431.00,100.20
3430.00,100.20
3429.00,100.20
3428.00,100.20
3427.00,100.19
3426.00,100.20
3425.00,100.20
3424.00,100.20
3423.00,100.20
3422.00,100.20
3421.00,100.20
3420.00,100.19
3419.00,100.19
3418.00,100.19
3417.00,100.18
3416.00,100.19
3415.00,100.19
3414.00,100.20
3413.00,100.20
3412.00,100.20
3411.00,100.21
3410.00,100.20
3409.00,100.20
3408.00,100.20
3407.00,100.21
3406.00,100.21
3405.00,100.21
3404.00,100.20
3403.00,100.20
3402.00,100.20
3401.00,100.19
3400.00,100.19
3399.00,100.19
3398.00,100.19
3397.00,100.19
3396.00,100.20
3395.00,100.20
3394.00,100.20
3393.00,100.21
3392.00,100.21
3391.00,100.20
3390.00,100.20
3389.00,100.19
3388.00,100.19
3387.00,100.19
3386.00,100.19
3385.00,100.19
3384.00,100.19
3383.00,100.19
3382.00,100.18
3381.00,100.18
3380.00,100.19
3379.00,100.19
3378.00,100.19
3377.00,100.19
3376.00,100.19
3375.00,100.19
3374.00,100.18
3373.00,100.18
3372.00,100.18
3371.00,100.18
3370.00,100.18
3369.00,100.19
3368.00,100.19
3367.00,100.19
3366.00,100.19
3365.00,100.20
3364.00,100.19
3363.00,100.19
3362.00,100.19
3361.00,100.19
3360.00,100.19
3359.00,100.19
3358.00,100.19
3357.00,100.19
3356.00,100.19
3355.00,100.18
3354.00,100.18
3353.00,100.18
3352.00,100.18
3351.00,100.18
3350.00,100.17
3349.00,100.18
3348.00,100.18
3347.00,100.19
3346.00,100.19
3345.00,100.19
3344.00,100.18
3343.00,100.18
3342.00,100.18
3341.00,100.19
3340.00,100.19
3339.00,100.19
3338.00,100.19
3337.00,100.19
3336.00,100.18
3335.00,100.18
3334.00,100.18
3333.00,100.18
3332.00,100.19
3331.00,100.19
3330.00,100.19
3329.00,100.18
3328.00,100.18
3327.00,100.18
3326.00,100.18
3325.00,100.18
3324.00,100.18
3323.00,100.18
3322.00,100.19
3321.00,100.19
3320.00,100.19
3319.00,100.19
3318.00,100.18
3317.00,100.18
3316.00,100.18
3315.00,100.18
3314.00,100.18
3313.00,100.18
3312.00,100.17
3311.00,100.17
3310.00,100.17
3309.00,100.18
3308.00,100.18
3307.00,100.18
3306.00,100.18
3305.00,100.18
3304.00,100.18
3303.00,100.18
3302.00,100.18
3301.00,100.18
3300.00,100.18
3299.00,100.18
3298.00,100.18
3297.00,100.19
3296.00,100.19
3295.00,100.19
3294.00,100.19
3293.00,100.18
3292.00,100.18
3291.00,100.18
3290.00,100.18
3289.00,100.19
3288.00,100.19
3287.00,100.19
3286.00,100.19
3285.00,100.18
3284.00,100.18
3283.00,100.18
3282.00,100.18
3281.00,100.18
3280.00,100.18
3279.00,100.19
3278.00,100.19
3277.00,100.19
3276.00,100.19
3275.00,100.19
3274.00,100.18
3273.00,100.18
3272.00,100.18
3271.00,100.18
3270.00,100.18
3269.00,100.18
3268.00,100.18
3267.00,100.18
3266.00,100.18
3265.00,100.18
3264.00,100.18
3263.00,100.18
3262.00,100.18
3261.00,100.18
3260.00,100.18
3259.00,100.18
3258.00,100.18
3257.00,100.18
3256.00,100.18
3255.00,100.18
3254.00,100.19
3253.00,100.19
3252.00,100.19
3251.00,100.19
3250.00,100.18
3249.00,100.18
3248.00,100.18
3247.00,100.18
3246.00,100.18
3245.00,100.19
3244.00,100.19
3243.00,100.19
3242.00,100.19
3241.00,100.18
3240.00,100.18
3239.00,100.17
3238.00,100.17
3237.00,100.17
3236.00,100.18
3235.00,100.18
3234.00,100.18
3233.00,100.18
3232.00,100.17
3231.00,100.17
3230.00,100.17
3229.00,100.17
3228.00,100.18
3227.00,100.18
3226.00,100.18
3225.00,100.18
3224.00,100.18
3223.00,100.18
3222.00,100.18
3221.00,100.18
3220.00,100.18
3219.00,100.18
3218.00,100.18
3217.00,100.18
3216.00,100.19
3215.00,100.19
3214.00,100.19
3213.00,100.19
3212.00,100.20
3211.00,100.20
3210.00,100.19
3209.00,100.19
3208.00,100.19
3207.00,100.18
3206.00,100.18
3205.00,100.18
3204.00,100.18
3203.00,100.18
3202.00,100.18
3201.00,100.18
3200.00,100.18
3199.00,100.19
3198.00,100.19
3197.00,100.19
3196.00,100.19
3195.00,100.19
3194.00,100.19
3193.00,100.18
3192.00,100.18
3191.00,100.18
3190.00,100.18
3189.00,100.18
3188.00,100.18
3187.00,100.18
3186.00,100.18
3185.00,100.18
3184.00,100.19
3183.00,100.19
3182.00,100.19
3181.00,100.19
3180.00,100.19
3179.00,100.19
3178.00,100.19
3177.00,100.19
3176.00,100.19
3175.00,100.18
3174.00,100.18
3173.00,100.18
3172.00,100.18
3171.00,100.18
3170.00,100.18
3169.00,100.19
3168.00,100.19
3167.00,100.19
3166.00,100.19
3165.00,100.18
3164.00,100.18
3163.00,100.18
3162.00,100.18
3161.00,100.17
3160.00,100.17
3159.00,100.18
3158.00,100.18
3157.00,100.19
3156.00,100.19
3155.00,100.19
3154.00,100.18
3153.00,100.18
3152.00,100.18
3151.00,100.18
3150.00,100.19
3149.00,100.19
3148.00,100.19
3147.00,100.19
3146.00,100.19
3145.00,100.19
3144.00,100.19
3143.00,100.19
3142.00,100.19
3141.00,100.19
3140.00,100.18
3139.00,100.18
3138.00,100.17
3137.00,100.18
3136.00,100.18
3135.00,100.19
3134.00,100.19
3133.00,100.19
3132.00,100.19
3131.00,100.18
3130.00,100.18
3129.00,100.17
3128.00,100.18
3127.00,100.18
3126.00,100.19
3125.00,100.19
3124.00,100.18
3123.00,100.18
3122.00,100.17
3121.00,100.17
3120.00,100.17
3119.00,100.18
3118.00,100.18
3117.00,100.19
3116.00,100.19
3115.00,100.19
3114.00,100.19
3113.00,100.19
3112.00,100.20
3111.00,100.21
3110.00,100.21
3109.00,100.21
3108.00,100.21
3107.00,100.21
3106.00,100.21
3105.00,100.21
3104.00,100.21
3103.00,100.21
3102.00,100.20
3101.00,100.20
3100.00,100.20
3099.00,100.19
3098.00,100.19
3097.00,100.19
3096.00,100.19
3095.00,100.19
3094.00,100.19
3093.00,100.20
3092.00,100.20
3091.00,100.20
3090.00,100.20
3089.00,100.20
3088.00,100.20
3087.00,100.20
3086.00,100.20
3085.00,100.19
3084.00,100.20
3083.00,100.20
3082.00,100.20
3081.00,100.21
3080.00,100.20
3079.00,100.20
3078.00,100.20
3077.00,100.20
3076.00,100.20
3075.00,100.19
3074.00,100.19
3073.00,100.19
3072.00,100.19
3071.00,100.20
3070.00,100.20
3069.00,100.20
3068.00,100.20
3067.00,100.20
3066.00,100.20
3065.00,100.20
3064.00,100.20
3063.00,100.20
3062.00,100.21
3061.00,100.20
3060.00,100.20
3059.00,100.20
3058.00,100.20
3057.00,100.21
3056.00,100.21
3055.00,100.21
3054.00,100.21
3053.00,100.21
3052.00,100.21
3051.00,100.21
3050.00,100.21
3049.00,100.21
3048.00,100.20
3047.00,100.20
3046.00,100.20
3045.00,100.20
3044.00,100.20
3043.00,100.20
3042.00,100.20
3041.00,100.20
3040.00,100.21
3039.00,100.21
3038.00,100.20
3037.00,100.20
3036.00,100.20
3035.00,100.20
3034.00,100.20
3033.00,100.20
3032.00,100.21
3031.00,100.21
3030.00,100.21
3029.00,100.20
3028.00,100.20
3027.00,100.20
3026.00,100.21
3025.00,100.21
3024.00,100.21
3023.00,100.21
3022.00,100.21
3021.00,100.21
3020.00,100.20
3019.00,100.20
3018.00,100.20
3017.00,100.20
3016.00,100.20
3015.00,100.20
3014.00,100.20
3013.00,100.21
3012.00,100.21
3011.00,100.22
3010.00,100.22
3009.00,100.22
3008.00,100.21
3007.00,100.21
3006.00,100.21
3005.00,100.20
3004.00,100.20
3003.00,100.20
3002.00,100.20
3001.00,100.20
3000.00,100.20
2999.00,100.20
2998.00,100.20
2997.00,100.20
2996.00,100.20
2995.00,100.20
2994.00,100.20
2993.00,100.20
2992.00,100.20
2991.00,100.20
2990.00,100.20
2989.00,100.19
2988.00,100.19
2987.00,100.19
2986.00,100.19
2985.00,100.19
2984.00,100.19
2983.00,100.19
2982.00,100.19
2981.00,100.19
2980.00,100.19
2979.00,100.19
2978.00,100.19
2977.00,100.20
2976.00,100.20
2975.00,100.20
2974.00,100.19
2973.00,100.19
2972.00,100.18
2971.00,100.18
2970.00,100.19
2969.00,100.19
2968.00,100.19
2967.00,100.19
2966.00,100.20
2965.00,100.20
2964.00,100.20
2963.00,100.19
2962.00,100.19
2961.00,100.19
2960.00,100.19
2959.00,100.19
2958.00,100.19
2957.00,100.19
2956.00,100.19
2955.00,100.19
2954.00,100.19
2953.00,100.19
2952.00,100.19
2951.00,100.19
2950.00,100.19
2949.00,100.20
2948.00,100.20
2947.00,100.20
2946.00,100.20
2945.00,100.20
2944.00,100.21
2943.00,100.21
2942.00,100.20
2941.00,100.19
2940.00,100.19
2939.00,100.19
2938.00,100.19
2937.00,100.20
2936.00,100.20
2935.00,100.20
2934.00,100.20
2933.00,100.20
2932.00,100.19
2931.00,100.19
2930.00,100.19
2929.00,100.19
2928.00,100.19
2927.00,100.20
2926.00,100.20
2925.00,100.21
2924.00,100.21
2923.00,100.21
2922.00,100.21
2921.00,100.21
2920.00,100.21
2919.00,100.21
2918.00,100.21
2917.00,100.21
2916.00,100.21
2915.00,100.21
2914.00,100.20
2913.00,100.20
2912.00,100.20
2911.00,100.20
2910.00,100.20
2909.00,100.20
2908.00,100.20
2907.00,100.20
2906.00,100.20
2905.00,100.20
2904.00,100.20
2903.00,100.20
2902.00,100.20
2901.00,100.20
2900.00,100.19
2899.00,100.19
2898.00,100.20
2897.00,100.20
2896.00,100.21
2895.00,100.21
2894.00,100.22
2893.00,100.22
2892.00,100.22
2891.00,100.22
2890.00,100.21
2889.00,100.21
2888.00,100.21
2887.00,100.21
2886.00,100.20
2885.00,100.20
2884.00,100.20
2883.00,100.20
2882.00,100.20
2881.00,100.21
2880.00,100.21
2879.00,100.21
2878.00,100.21
2877.00,100.21
2876.00,100.21
2875.00,100.21
2874.00,100.21
2873.00,100.22
2872.00,100.22
2871.00,100.22
2870.00,100.22
2869.00,100.22
2868.00,100.21
2867.00,100.22
2866.00,100.22
2865.00,100.22
2864.00,100.23
2863.00,100.23
2862.00,100.23
2861.00,100.22
2860.00,100.22
2859.00,100.22
2858.00,100.22
2857.00,100.22
2856.00,100.22
2855.00,100.22
2854.00,100.22
2853.00,100.22
2852.00,100.22
2851.00,100.22
2850.00,100.22
2849.00,100.22
2848.00,100.22
2847.00,100.22
2846.00,100.21
2845.00,100.21
2844.00,100.21
2843.00,100.21
2842.00,100.21
2841.00,100.21
2840.00,100.21
2839.00,100.21
2838.00,100.22
2837.00,100.22
2836.00,100.22
2835.00,100.22
2834.00,100.22
2833.00,100.22
2832.00,100.22
2831.00,100.23
2830.00,100.23
2829.00,100.23
2828.00,100.23
2827.00,100.23
2826.00,100.22
2825.00,100.22
2824.00,100.22
2823.00,100.22
2822.00,100.22
2821.00,100.22
2820.00,100.22
2819.00,100.22
2818.00,100.23
2817.00,100.23
2816.00,100.23
2815.00,100.23
2814.00,100.23
2813.00,100.22
2812.00,100.22
2811.00,100.22
2810.00,100.22
2809.00,100.22
2808.00,100.22
2807.00,100.23
2806.00,100.23
2805.00,100.23
2804.00,100.24
2803.00,100.24
2802.00,100.24
2801.00,100.24
2800.00,100.24
2799.00,100.23
2798.00,100.23
2797.00,100.22
2796.00,100.23
2795.00,100.23
2794.00,100.23
2793.00,100.23
2792.00,100.23
2791.00,100.23
2790.00,100.23
2789.00,100.23
2788.00,100.23
2787.00,100.23
2786.00,100.23
2785.00,100.23
2784.00,100.23
2783.00,100.23
2782.00,100.23
2781.00,100.23
2780.00,100.23
2779.00,100.22
2778.00,100.22
2777.00,100.22
2776.00,100.22
2775.00,100.22
2774.00,100.22
2773.00,100.23
2772.00,100.23
2771.00,100.23
2770.00,100.23
2769.00,100.23
2768.00,100.22
2767.00,100.22
2766.00,100.22
2765.00,100.22
2764.00,100.23
2763.00,100.23
2762.00,100.23
2761.00,100.23
2760.00,100.23
2759.00,100.22
2758.00,100.22
2757.00,100.22
2756.00,100.22
2755.00,100.22
2754.00,100.22
2753.00,100.23
2752.00,100.23
2751.00,100.23
2750.00,100.23
2749.00,100.23
2748.00,100.23
2747.00,100.23
2746.00,100.23
2745.00,100.23
2744.00,100.23
2743.00,100.23
2742.00,100.23
2741.00,100.23
2740.00,100.23
2739.00,100.23
2738.00,100.23
2737.00,100.23
2736.00,100.23
2735.00,100.23
2734.00,100.22
2733.00,100.22
2732.00,100.22
2731.00,100.22
2730.00,100.22
2729.00,100.22
2728.00,100.22
2727.00,100.22
2726.00,100.23
2725.00,100.23
2724.00,100.23
2723.00,100.23
2722.00,100.23
2721.00,100.23
2720.00,100.23
2719.00,100.23
2718.00,100.23
2717.00,100.23
2716.00,100.23
2715.00,100.23
2714.00,100.23
2713.00,100.23
2712.00,100.23
2711.00,100.23
2710.00,100.22
2709.00,100.22
2708.00,100.21
2707.00,100.21
2706.00,100.21
2705.00,100.21
2704.00,100.22
2703.00,100.22
2702.00,100.22
2701.00,100.22
2700.00,100.22
2699.00,100.22
2698.00,100.21
2697.00,100.21
2696.00,100.21
2695.00,100.21
2694.00,100.21
2693.00,100.21
2692.00,100.22
2691.00,100.22
2690.00,100.22
2689.00,100.21
2688.00,100.21
2687.00,100.21
2686.00,100.21
2685.00,100.21
2684.00,100.22
2683.00,100.22
2682.00,100.22
2681.00,100.22
2680.00,100.22
2679.00,100.22
2678.00,100.22
2677.00,100.22
2676.00,100.22
2675.00,100.22
2674.00,100.21
2673.00,100.21
2672.00,100.22
2671.00,100.22
2670.00,100.22
2669.00,100.22
2668.00,100.22
2667.00,100.22
2666.00,100.22
2665.00,100.22
2664.00,100.22
2663.00,100.22
2662.00,100.22
2661.00,100.22
2660.00,100.21
2659.00,100.21
2658.00,100.21
2657.00,100.21
2656.00,100.21
2655.00,100.21
2654.00,100.21
2653.00,100.21
2652.00,100.21
2651.00,100.21
2650.00,100.20
2649.00,100.20
2648.00,100.21
2647.00,100.21
2646.00,100.22
2645.00,100.23
2644.00,100.23
2643.00,100.22
2642.00,100.22
2641.00,100.21
2640.00,100.21
2639.00,100.21
2638.00,100.21
2637.00,100.21
2636.00,100.21
2635.00,100.21
2634.00,100.21
2633.00,100.21
2632.00,100.22
2631.00,100.22
2630.00,100.22
2629.00,100.22
2628.00,100.22
2627.00,100.21
2626.00,100.21
2625.00,100.21
2624.00,100.21
2623.00,100.21
2622.00,100.21
2621.00,100.21
2620.00,100.21
2619.00,100.22
2618.00,100.21
2617.00,100.21
2616.00,100.20
2615.00,100.20
2614.00,100.21
2613.00,100.21
2612.00,100.21
2611.00,100.21
2610.00,100.21
2609.00,100.20
2608.00,100.20
2607.00,100.20
2606.00,100.20
2605.00,100.21
2604.00,100.21
2603.00,100.22
2602.00,100.22
2601.00,100.22
2600.00,100.21
2599.00,100.21
2598.00,100.21
2597.00,100.22
2596.00,100.22
2595.00,100.22
2594.00,100.21
2593.00,100.21
2592.00,100.21
2591.00,100.21
2590.00,100.21
2589.00,100.21
2588.00,100.21
2587.00,100.21
2586.00,100.21
2585.00,100.20
2584.00,100.20
2583.00,100.21
2582.00,100.21
2581.00,100.20
2580.00,100.20
2579.00,100.20
2578.00,100.20
2577.00,100.21
2576.00,100.21
2575.00,100.22
2574.00,100.22
2573.00,100.21
2572.00,100.21
2571.00,100.20
2570.00,100.20
2569.00,100.21
2568.00,100.21
2567.00,100.22
2566.00,100.22
2565.00,100.22
2564.00,100.22
2563.00,100.22
2562.00,100.21
2561.00,100.21
2560.00,100.22
2559.00,100.22
2558.00,100.22
2557.00,100.21
2556.00,100.21
2555.00,100.20
2554.00,100.20
2553.00,100.20
2552.00,100.20
2551.00,100.20
2550.00,100.21
2549.00,100.21
2548.00,100.21
2547.00,100.21
2546.00,100.21
2545.00,100.20
2544.00,100.20
2543.00,100.20
2542.00,100.20
2541.00,100.20
2540.00,100.21
2539.00,100.21
2538.00,100.20
2537.00,100.20
2536.00,100.19
2535.00,100.19
2534.00,100.19
2533.00,100.19
2532.00,100.19
2531.00,100.20
2530.00,100.20
2529.00,100.20
2528.00,100.20
2527.00,100.20
2526.00,100.20
2525.00,100.20
2524.00,100.20
2523.00,100.20
2522.00,100.19
2521.00,100.19
2520.00,100.19
2519.00,100.19
2518.00,100.20
2517.00,100.20
2516.00,100.21
2515.00,100.21
2514.00,100.21
2513.00,100.21
2512.00,100.21
2511.00,100.20
2510.00,100.20
2509.00,100.20
2508.00,100.20
2507.00,100.20
2506.00,100.20
2505.00,100.19
2504.00,100.19
2503.00,100.19
2502.00,100.19
2501.00,100.19
2500.00,100.20
2499.00,100.19
2498.00,100.19
2497.00,100.18
2496.00,100.18
2495.00,100.19
2494.00,100.20
2493.00,100.20
2492.00,100.20
2491.00,100.20
2490.00,100.20
2489.00,100.20
2488.00,100.20
2487.00,100.20
2486.00,100.19
2485.00,100.19
2484.00,100.20
2483.00,100.20
2482.00,100.20
2481.00,100.21
2480.00,100.21
2479.00,100.20
2478.00,100.20
2477.00,100.19
2476.00,100.18
2475.00,100.18
2474.00,100.19
2473.00,100.19
2472.00,100.20
2471.00,100.20
2470.00,100.20
2469.00,100.20
2468.00,100.20
2467.00,100.20
2466.00,100.19
2465.00,100.19
2464.00,100.19
2463.00,100.19
2462.00,100.19
2461.00,100.19
2460.00,100.20
2459.00,100.20
2458.00,100.20
2457.00,100.20
2456.00,100.20
2455.00,100.19
2454.00,100.19
2453.00,100.19
2452.00,100.19
2451.00,100.19
2450.00,100.19
2449.00,100.20
2448.00,100.20
2447.00,100.21
2446.00,100.21
2445.00,100.20
2444.00,100.19
2443.00,100.19
2442.00,100.19
2441.00,100.19
2440.00,100.20
2439.00,100.20
2438.00,100.20
2437.00,100.21
2436.00,100.20
2435.00,100.20
2434.00,100.20
2433.00,100.20
2432.00,100.20
2431.00,100.20
2430.00,100.19
2429.00,100.19
2428.00,100.19
2427.00,100.18
2426.00,100.18
2425.00,100.17
2424.00,100.17
2423.00,100.18
2422.00,100.19
2421.00,100.19
2420.00,100.20
2419.00,100.20
2418.00,100.19
2417.00,100.19
2416.00,100.19
2415.00,100.20
2414.00,100.20
2413.00,100.19
2412.00,100.19
2411.00,100.19
2410.00,100.20
2409.00,100.20
2408.00,100.20
2407.00,100.20
2406.00,100.19
2405.00,100.19
2404.00,100.20
2403.00,100.19
2402.00,100.19
2401.00,100.19
2400.00,100.18
2399.00,100.18
2398.00,100.18
2397.00,100.18
2396.00,100.19
2395.00,100.19
2394.00,100.19
2393.00,100.19
2392.00,100.19
2391.00,100.19
2390.00,100.19
2389.00,100.19
2388.00,100.19
2387.00,100.18
2386.00,100.18
2385.00,100.18
2384.00,100.18
2383.00,100.18
2382.00,100.18
2381.00,100.18
2380.00,100.19
2379.00,100.20
2378.00,100.21
2377.00,100.22
2376.00,100.22
2375.00,100.22
2374.00,100.22
2373.00,100.21
2372.00,100.19
2371.00,100.17
2370.00,100.15
2369.00,100.15
2368.00,100.15
2367.00,100.15
2366.00,100.16
2365.00,100.17
2364.00,100.18
2363.00,100.20
2362.00,100.20
2361.00,100.18
2360.00,100.16
2359.00,100.15
2358.00,100.16
2357.00,100.18
2356.00,100.19
2355.00,100.20
2354.00,100.19
2353.00,100.19
2352.00,100.19
2351.00,100.19
2350.00,100.19
2349.00,100.19
2348.00,100.19
2347.00,100.19
2346.00,100.19
2345.00,100.17
2344.00,100.15
2343.00,100.14
2342.00,100.16
2341.00,100.18
2340.00,100.21
2339.00,100.23
2338.00,100.24
2337.00,100.24
2336.00,100.23
2335.00,100.23
2334.00,100.22
2333.00,100.22
2332.00,100.22
2331.00,100.22
2330.00,100.21
2329.00,100.19
2328.00,100.18
2327.00,100.17
2326.00,100.17
2325.00,100.18
2324.00,100.19
2323.00,100.20
2322.00,100.20
2321.00,100.20
2320.00,100.19
2319.00,100.17
2318.00,100.17
2317.00,100.17
2316.00,100.17
2315.00,100.18
2314.00,100.18
2313.00,100.18
2312.00,100.18
2311.00,100.18
2310.00,100.18
2309.00,100.18
2308.00,100.18
2307.00,100.18
2306.00,100.18
2305.00,100.17
2304.00,100.16
2303.00,100.16
2302.00,100.16
2301.00,100.17
2300.00,100.17
2299.00,100.17
2298.00,100.17
2297.00,100.17
2296.00,100.17
2295.00,100.17
2294.00,100.18
2293.00,100.19
2292.00,100.20
2291.00,100.21
2290.00,100.21
2289.00,100.20
2288.00,100.20
2287.00,100.21
2286.00,100.21
2285.00,100.21
2284.00,100.21
2283.00,100.20
2282.00,100.19
2281.00,100.18
2280.00,100.18
2279.00,100.18
2278.00,100.19
2277.00,100.19
2276.00,100.20
2275.00,100.20
2274.00,100.21
2273.00,100.21
2272.00,100.22
2271.00,100.23
2270.00,100.23
2269.00,100.22
2268.00,100.21
2267.00,100.21
2266.00,100.21
2265.00,100.22
2264.00,100.22
2263.00,100.23
2262.00,100.23
2261.00,100.22
2260.00,100.21
2259.00,100.20
2258.00,100.19
2257.00,100.19
2256.00,100.19
2255.00,100.20
2254.00,100.21
2253.00,100.21
2252.00,100.22
2251.00,100.23
2250.00,100.24
2249.00,100.24
2248.00,100.23
2247.00,100.22
2246.00,100.20
2245.00,100.20
2244.00,100.20
2243.00,100.21
2242.00,100.22
2241.00,100.23
2240.00,100.24
2239.00,100.23
2238.00,100.21
2237.00,100.20
2236.00,100.19
2235.00,100.20
2234.00,100.21
2233.00,100.22
2232.00,100.23
2231.00,100.23
2230.00,100.22
2229.00,100.22
2228.00,100.23
2227.00,100.23
2226.00,100.23
2225.00,100.23
2224.00,100.22
2223.00,100.21
2222.00,100.21
2221.00,100.22
2220.00,100.22
2219.00,100.22
2218.00,100.22
2217.00,100.22
2216.00,100.22
2215.00,100.21
2214.00,100.20
2213.00,100.19
2212.00,100.19
2211.00,100.20
2210.00,100.22
2209.00,100.24
2208.00,100.26
2207.00,100.26
2206.00,100.25
2205.00,100.24
2204.00,100.23
2203.00,100.23
2202.00,100.23
2201.00,100.23
2200.00,100.22
2199.00,100.21
2198.00,100.19
2197.00,100.19
2196.00,100.19
2195.00,100.19
2194.00,100.20
2193.00,100.21
2192.00,100.21
2191.00,100.21
2190.00,100.21
2189.00,100.22
2188.00,100.22
2187.00,100.23
2186.00,100.23
2185.00,100.21
2184.00,100.20
2183.00,100.19
2182.00,100.20
2181.00,100.21
2180.00,100.22
2179.00,100.21
2178.00,100.20
2177.00,100.19
2176.00,100.18
2175.00,100.18
2174.00,100.18
2173.00,100.18
2172.00,100.18
2171.00,100.18
2170.00,100.18
2169.00,100.19
2168.00,100.20
2167.00,100.21
2166.00,100.22
2165.00,100.22
2164.00,100.22
2163.00,100.22
2162.00,100.22
2161.00,100.20
2160.00,100.19
2159.00,100.18
2158.00,100.19
2157.00,100.19
2156.00,100.20
2155.00,100.21
2154.00,100.22
2153.00,100.23
2152.00,100.23
2151.00,100.22
2150.00,100.21
2149.00,100.21
2148.00,100.21
2147.00,100.22
2146.00,100.23
2145.00,100.23
2144.00,100.23
2143.00,100.24
2142.00,100.24
2141.00,100.23
2140.00,100.22
2139.00,100.21
2138.00,100.20
2137.00,100.19
2136.00,100.20
2135.00,100.21
2134.00,100.23
2133.00,100.23
2132.00,100.23
2131.00,100.22
2130.00,100.21
2129.00,100.20
2128.00,100.19
2127.00,100.19
2126.00,100.20
2125.00,100.21
2124.00,100.22
2123.00,100.23
2122.00,100.23
2121.00,100.23
2120.00,100.23
2119.00,100.22
2118.00,100.22
2117.00,100.22
2116.00,100.23
2115.00,100.23
2114.00,100.23
2113.00,100.23
2112.00,100.22
2111.00,100.21
2110.00,100.21
2109.00,100.20
2108.00,100.21
2107.00,100.21
2106.00,100.22
2105.00,100.22
2104.00,100.22
2103.00,100.21
2102.00,100.21
2101.00,100.21
2100.00,100.22
2099.00,100.22
2098.00,100.22
2097.00,100.22
2096.00,100.22
2095.00,100.22
2094.00,100.23
2093.00,100.24
2092.00,100.24
2091.00,100.23
2090.00,100.22
2089.00,100.22
2088.00,100.22
2087.00,100.23
2086.00,100.24
2085.00,100.24
2084.00,100.24
2083.00,100.24
2082.00,100.24
2081.00,100.24
2080.00,100.23
2079.00,100.23
2078.00,100.22
2077.00,100.22
2076.00,100.23
2075.00,100.24
2074.00,100.24
2073.00,100.24
2072.00,100.25
2071.00,100.26
2070.00,100.25
2069.00,100.23
2068.00,100.21
2067.00,100.20
2066.00,100.20
2065.00,100.21
2064.00,100.21
2063.00,100.21
2062.00,100.20
2061.00,100.19
2060.00,100.19
2059.00,100.19
2058.00,100.20
2057.00,100.21
2056.00,100.21
2055.00,100.21
2054.00,100.22
2053.00,100.23
2052.00,100.23
2051.00,100.24
2050.00,100.23
2049.00,100.22
2048.00,100.22
2047.00,100.22
2046.00,100.23
2045.00,100.24
2044.00,100.23
2043.00,100.23
2042.00,100.24
2041.00,100.25
2040.00,100.26
2039.00,100.25
2038.00,100.25
2037.00,100.24
2036.00,100.25
2035.00,100.26
2034.00,100.27
2033.00,100.26
2032.00,100.25
2031.00,100.24
2030.00,100.23
2029.00,100.22
2028.00,100.21
2027.00,100.20
2026.00,100.20
2025.00,100.20
2024.00,100.21
2023.00,100.22
2022.00,100.23
2021.00,100.24
2020.00,100.23
2019.00,100.22
2018.00,100.21
2017.00,100.21
2016.00,100.22
2015.00,100.23
2014.00,100.25
2013.00,100.27
2012.00,100.27
2011.00,100.27
2010.00,100.25
2009.00,100.24
2008.00,100.23
2007.00,100.22
2006.00,100.21
2005.00,100.20
2004.00,100.20
2003.00,100.20
2002.00,100.21
2001.00,100.22
2000.00,100.23
1999.00,100.25
1998.00,100.26
1997.00,100.27
1996.00,100.27
1995.00,100.27
1994.00,100.26
1993.00,100.26
1992.00,100.26
1991.00,100.26
1990.00,100.24
1989.00,100.23
1988.00,100.22
1987.00,100.21
1986.00,100.20
1985.00,100.20
1984.00,100.21
1983.00,100.23
1982.00,100.23
1981.00,100.22
1980.00,100.22
1979.00,100.21
1978.00,100.21
1977.00,100.21
1976.00,100.22
1975.00,100.22
1974.00,100.22
1973.00,100.20
1972.00,100.19
1971.00,100.18
1970.00,100.18
1969.00,100.19
1968.00,100.20
1967.00,100.22
1966.00,100.24
1965.00,100.25
1964.00,100.26
1963.00,100.26
1962.00,100.25
1961.00,100.24
1960.00,100.22
1959.00,100.21
1958.00,100.20
1957.00,100.20
1956.00,100.20
1955.00,100.22
1954.00,100.24
1953.00,100.24
1952.00,100.24
1951.00,100.23
1950.00,100.23
1949.00,100.22
1948.00,100.22
1947.00,100.23
1946.00,100.22
1945.00,100.22
1944.00,100.22
1943.00,100.22
1942.00,100.22
1941.00,100.22
1940.00,100.21
1939.00,100.21
1938.00,100.21
1937.00,100.21
1936.00,100.21
1935.00,100.22
1934.00,100.23
1933.00,100.23
1932.00,100.24
1931.00,100.25
1930.00,100.25
1929.00,100.25
1928.00,100.24
1927.00,100.22
1926.00,100.20
1925.00,100.19
1924.00,100.20
1923.00,100.21
1922.00,100.23
1921.00,100.23
1920.00,100.23
1919.00,100.22
1918.00,100.22
1917.00,100.23
1916.00,100.23
1915.00,100.24
1914.00,100.24
1913.00,100.24
1912.00,100.23
1911.00,100.21
1910.00,100.20
1909.00,100.20
1908.00,100.21
1907.00,100.21
1906.00,100.22
1905.00,100.22
1904.00,100.23
1903.00,100.23
1902.00,100.23
1901.00,100.23
1900.00,100.23
1899.00,100.23
1898.00,100.23
1897.00,100.23
1896.00,100.22
1895.00,100.22
1894.00,100.21
1893.00,100.21
1892.00,100.21
1891.00,100.22
1890.00,100.23
1889.00,100.24
1888.00,100.25
1887.00,100.25
1886.00,100.25
1885.00,100.25
1884.00,100.24
1883.00,100.23
1882.00,100.23
1881.00,100.23
1880.00,100.22
1879.00,100.21
1878.00,100.20
1877.00,100.20
1876.00,100.20
1875.00,100.20
1874.00,100.21
1873.00,100.21
1872.00,100.22
1871.00,100.22
1870.00,100.22
1869.00,100.23
1868.00,100.22
1867.00,100.22
1866.00,100.21
1865.00,100.20
1864.00,100.21
1863.00,100.21
1862.00,100.22
1861.00,100.21
1860.00,100.20
1859.00,100.19
1858.00,100.19
1857.00,100.19
1856.00,100.20
1855.00,100.20
1854.00,100.21
1853.00,100.20
1852.00,100.20
1851.00,100.20
1850.00,100.21
1849.00,100.21
1848.00,100.22
1847.00,100.22
1846.00,100.22
1845.00,100.22
1844.00,100.22
1843.00,100.22
1842.00,100.22
1841.00,100.22
1840.00,100.22
1839.00,100.22
1838.00,100.22
1837.00,100.22
1836.00,100.22
1835.00,100.22
1834.00,100.22
1833.00,100.21
1832.00,100.21
1831.00,100.20
1830.00,100.20
1829.00,100.21
1828.00,100.22
1827.00,100.23
1826.00,100.24
1825.00,100.24
1824.00,100.23
1823.00,100.22
1822.00,100.21
1821.00,100.21
1820.00,100.22
1819.00,100.22
1818.00,100.23
1817.00,100.23
1816.00,100.22
1815.00,100.22
1814.00,100.22
1813.00,100.22
1812.00,100.23
1811.00,100.22
1810.00,100.22
1809.00,100.21
1808.00,100.20
1807.00,100.20
1806.00,100.21
1805.00,100.21
1804.00,100.21
1803.00,100.21
1802.00,100.21
1801.00,100.21
1800.00,100.21
1799.00,100.21
1798.00,100.21
1797.00,100.22
1796.00,100.22
1795.00,100.22
1794.00,100.22
1793.00,100.22
1792.00,100.22
1791.00,100.22
1790.00,100.22
1789.00,100.22
1788.00,100.22
1787.00,100.21
1786.00,100.21
1785.00,100.21
1784.00,100.21
1783.00,100.21
1782.00,100.21
1781.00,100.21
1780.00,100.21
1779.00,100.21
1778.00,100.21
1777.00,100.21
1776.00,100.20
1775.00,100.20
1774.00,100.20
1773.00,100.21
1772.00,100.21
1771.00,100.21
1770.00,100.21
1769.00,100.21
1768.00,100.21
1767.00,100.21
1766.00,100.21
1765.00,100.21
1764.00,100.21
1763.00,100.22
1762.00,100.22
1761.00,100.22
1760.00,100.22
1759.00,100.22
1758.00,100.22
1757.00,100.22
1756.00,100.22
1755.00,100.22
1754.00,100.22
1753.00,100.22
1752.00,100.22
1751.00,100.22
1750.00,100.22
1749.00,100.23
1748.00,100.23
1747.00,100.23
1746.00,100.23
1745.00,100.24
1744.00,100.25
1743.00,100.25
1742.00,100.25
1741.00,100.25
1740.00,100.25
1739.00,100.25
1738.00,100.25
1737.00,100.25
1736.00,100.24
1735.00,100.24
1734.00,100.24
1733.00,100.24
1732.00,100.24
1731.00,100.24
1730.00,100.24
1729.00,100.24
1728.00,100.24
1727.00,100.24
1726.00,100.24
1725.00,100.24
1724.00,100.24
1723.00,100.24
1722.00,100.24
1721.00,100.24
1720.00,100.24
1719.00,100.24
1718.00,100.23
1717.00,100.23
1716.00,100.23
1715.00,100.24
1714.00,100.24
1713.00,100.24
1712.00,100.23
1711.00,100.23
1710.00,100.23
1709.00,100.23
1708.00,100.23
1707.00,100.23
1706.00,100.23
1705.00,100.24
1704.00,100.24
1703.00,100.24
1702.00,100.24
1701.00,100.24
1700.00,100.23
1699.00,100.23
1698.00,100.23
1697.00,100.24
1696.00,100.24
1695.00,100.24
1694.00,100.24
1693.00,100.24
1692.00,100.24
1691.00,100.23
1690.00,100.24
1689.00,100.24
1688.00,100.24
1687.00,100.24
1686.00,100.24
1685.00,100.24
1684.00,100.24
1683.00,100.24
1682.00,100.23
1681.00,100.23
1680.00,100.23
1679.00,100.23
1678.00,100.23
1677.00,100.23
1676.00,100.23
1675.00,100.23
1674.00,100.23
1673.00,100.23
1672.00,100.22
1671.00,100.21
1670.00,100.21
1669.00,100.21
1668.00,100.22
1667.00,100.22
1666.00,100.22
1665.00,100.23
1664.00,100.24
1663.00,100.24
1662.00,100.24
1661.00,100.23
1660.00,100.23
1659.00,100.23
1658.00,100.22
1657.00,100.23
1656.00,100.23
1655.00,100.24
1654.00,100.24
1653.00,100.24
1652.00,100.24
1651.00,100.24
1650.00,100.24
1649.00,100.24
1648.00,100.24
1647.00,100.24
1646.00,100.24
1645.00,100.23
1644.00,100.23
1643.00,100.23
1642.00,100.23
1641.00,100.23
1640.00,100.24
1639.00,100.24
1638.00,100.24
1637.00,100.23
1636.00,100.23
1635.00,100.24
1634.00,100.25
1633.00,100.26
1632.00,100.26
1631.00,100.25
1630.00,100.25
1629.00,100.24
1628.00,100.23
1627.00,100.23
1626.00,100.24
1625.00,100.24
1624.00,100.25
1623.00,100.24
1622.00,100.24
1621.00,100.24
1620.00,100.24
1619.00,100.24
1618.00,100.24
1617.00,100.24
1616.00,100.23
1615.00,100.22
1614.00,100.22
1613.00,100.23
1612.00,100.23
1611.00,100.23
1610.00,100.22
1609.00,100.22
1608.00,100.23
1607.00,100.23
1606.00,100.23
1605.00,100.24
1604.00,100.23
1603.00,100.23
1602.00,100.23
1601.00,100.23
1600.00,100.23
1599.00,100.23
1598.00,100.23
1597.00,100.23
1596.00,100.22
1595.00,100.22
1594.00,100.22
1593.00,100.23
1592.00,100.23
1591.00,100.23
1590.00,100.23
1589.00,100.23
1588.00,100.23
1587.00,100.23
1586.00,100.23
1585.00,100.23
1584.00,100.23
1583.00,100.22
1582.00,100.22
1581.00,100.22
1580.00,100.22
1579.00,100.22
1578.00,100.22
1577.00,100.22
1576.00,100.22
1575.00,100.23
1574.00,100.23
1573.00,100.23
1572.00,100.23
1571.00,100.23
1570.00,100.24
1569.00,100.24
1568.00,100.24
1567.00,100.23
1566.00,100.23
1565.00,100.23
1564.00,100.22
1563.00,100.22
1562.00,100.22
1561.00,100.22
1560.00,100.22
1559.00,100.22
1558.00,100.22
1557.00,100.23
1556.00,100.23
1555.00,100.23
1554.00,100.23
1553.00,100.23
1552.00,100.23
1551.00,100.23
1550.00,100.23
1549.00,100.24
1548.00,100.24
1547.00,100.24
1546.00,100.24
1545.00,100.24
1544.00,100.24
1543.00,100.24
1542.00,100.24
1541.00,100.24
1540.00,100.24
1539.00,100.24
1538.00,100.24
1537.00,100.24
1536.00,100.23
1535.00,100.23
1534.00,100.23
1533.00,100.23
1532.00,100.23
1531.00,100.23
1530.00,100.23
1529.00,100.22
1528.00,100.22
1527.00,100.22
1526.00,100.22
1525.00,100.23
1524.00,100.23
1523.00,100.23
1522.00,100.23
1521.00,100.23
1520.00,100.23
1519.00,100.23
1518.00,100.23
1517.00,100.22
1516.00,100.22
1515.00,100.22
1514.00,100.23
1513.00,100.23
1512.00,100.23
1511.00,100.24
1510.00,100.24
1509.00,100.24
1508.00,100.24
1507.00,100.25
1506.00,100.26
1505.00,100.26
1504.00,100.26
1503.00,100.26
1502.00,100.25
1501.00,100.25
1500.00,100.25
1499.00,100.25
1498.00,100.25
1497.00,100.24
1496.00,100.23
1495.00,100.22
1494.00,100.22
1493.00,100.21
1492.00,100.22
1491.00,100.22
1490.00,100.22
1489.00,100.23
1488.00,100.23
1487.00,100.23
1486.00,100.23
1485.00,100.22
1484.00,100.22
1483.00,100.22
1482.00,100.23
1481.00,100.23
1480.00,100.24
1479.00,100.24
1478.00,100.24
1477.00,100.23
1476.00,100.23
1475.00,100.22
1474.00,100.22
1473.00,100.21
1472.00,100.21
1471.00,100.22
1470.00,100.22
1469.00,100.22
1468.00,100.23
1467.00,100.23
1466.00,100.23
1465.00,100.23
1464.00,100.23
1463.00,100.22
1462.00,100.22
1461.00,100.23
1460.00,100.23
1459.00,100.24
1458.00,100.25
1457.00,100.25
1456.00,100.25
1455.00,100.25
1454.00,100.24
1453.00,100.24
1452.00,100.23
1451.00,100.23
1450.00,100.23
1449.00,100.23
1448.00,100.23
1447.00,100.23
1446.00,100.23
1445.00,100.22
1444.00,100.22
1443.00,100.22
1442.00,100.22
1441.00,100.23
1440.00,100.23
1439.00,100.24
1438.00,100.25
1437.00,100.25
1436.00,100.24
1435.00,100.24
1434.00,100.23
1433.00,100.23
1432.00,100.23
1431.00,100.23
1430.00,100.23
1429.00,100.23
1428.00,100.24
1427.00,100.24
1426.00,100.24
1425.00,100.24
1424.00,100.24
1423.00,100.24
1422.00,100.24
1421.00,100.23
1420.00,100.23
1419.00,100.23
1418.00,100.23
1417.00,100.23
1416.00,100.23
1415.00,100.23
1414.00,100.24
1413.00,100.24
1412.00,100.24
1411.00,100.24
1410.00,100.24
1409.00,100.24
1408.00,100.24
1407.00,100.24
1406.00,100.24
1405.00,100.24
1404.00,100.24
1403.00,100.24
1402.00,100.24
1401.00,100.24
1400.00,100.24
1399.00,100.23
1398.00,100.22
1397.00,100.23
1396.00,100.23
1395.00,100.24
1394.00,100.24
1393.00,100.25
1392.00,100.25
1391.00,100.25
1390.00,100.25
1389.00,100.25
1388.00,100.24
1387.00,100.24
1386.00,100.24
1385.00,100.24
1384.00,100.24
1383.00,100.24
1382.00,100.24
1381.00,100.24
1380.00,100.23
1379.00,100.23
1378.00,100.23
1377.00,100.24
1376.00,100.24
1375.00,100.24
1374.00,100.24
1373.00,100.23
1372.00,100.23
1371.00,100.23
1370.00,100.23
1369.00,100.23
1368.00,100.24
1367.00,100.24
1366.00,100.25
1365.00,100.25
1364.00,100.24
1363.00,100.24
1362.00,100.24
1361.00,100.24
1360.00,100.24
1359.00,100.24
1358.00,100.25
1357.00,100.25
1356.00,100.25
1355.00,100.24
1354.00,100.24
1353.00,100.24
1352.00,100.24
1351.00,100.24
1350.00,100.25
1349.00,100.25
1348.00,100.25
1347.00,100.25
1346.00,100.24
1345.00,100.24
1344.00,100.24
1343.00,100.24
1342.00,100.24
1341.00,100.23
1340.00,100.23
1339.00,100.23
1338.00,100.23
1337.00,100.23
1336.00,100.23
1335.00,100.23
1334.00,100.23
1333.00,100.23
1332.00,100.23
1331.00,100.23
1330.00,100.22
1329.00,100.22
1328.00,100.23
1327.00,100.23
1326.00,100.23
1325.00,100.23
1324.00,100.22
1323.00,100.22
1322.00,100.22
1321.00,100.22
1320.00,100.22
1319.00,100.22
1318.00,100.22
1317.00,100.22
1316.00,100.22
1315.00,100.21
1314.00,100.21
1313.00,100.20
1312.00,100.21
1311.00,100.21
1310.00,100.22
1309.00,100.22
1308.00,100.23
1307.00,100.23
1306.00,100.23
1305.00,100.23
1304.00,100.23
1303.00,100.23
1302.00,100.23
1301.00,100.23
1300.00,100.23
1299.00,100.23
1298.00,100.23
1297.00,100.22
1296.00,100.22
1295.00,100.22
1294.00,100.22
1293.00,100.23
1292.00,100.23
1291.00,100.23
1290.00,100.23
1289.00,100.23
1288.00,100.23
1287.00,100.24
1286.00,100.24
1285.00,100.24
1284.00,100.24
1283.00,100.24
1282.00,100.25
1281.00,100.26
1280.00,100.27
1279.00,100.28
1278.00,100.28
1277.00,100.28
1276.00,100.27
1275.00,100.27
1274.00,100.26
1273.00,100.26
1272.00,100.26
1271.00,100.26
1270.00,100.26
1269.00,100.25
1268.00,100.26
1267.00,100.26
1266.00,100.26
1265.00,100.26
1264.00,100.26
1263.00,100.26
1262.00,100.25
1261.00,100.25
1260.00,100.24
1259.00,100.24
1258.00,100.25
1257.00,100.25
1256.00,100.25
1255.00,100.25
1254.00,100.26
1253.00,100.26
1252.00,100.26
1251.00,100.26
1250.00,100.26
1249.00,100.26
1248.00,100.26
1247.00,100.26
1246.00,100.26
1245.00,100.26
1244.00,100.25
1243.00,100.25
1242.00,100.25
1241.00,100.25
1240.00,100.24
1239.00,100.24
1238.00,100.23
1237.00,100.23
1236.00,100.24
1235.00,100.24
1234.00,100.24
1233.00,100.24
1232.00,100.24
1231.00,100.25
1230.00,100.25
1229.00,100.26
1228.00,100.26
1227.00,100.26
1226.00,100.25
1225.00,100.25
1224.00,100.25
1223.00,100.25
1222.00,100.25
1221.00,100.25
1220.00,100.25
1219.00,100.25
1218.00,100.25
1217.00,100.25
1216.00,100.26
1215.00,100.26
1214.00,100.26
1213.00,100.26
1212.00,100.26
1211.00,100.26
1210.00,100.26
1209.00,100.26
1208.00,100.26
1207.00,100.26
1206.00,100.26
1205.00,100.26
1204.00,100.25
1203.00,100.25
1202.00,100.25
1201.00,100.25
1200.00,100.25
1199.00,100.25
1198.00,100.26
1197.00,100.26
1196.00,100.26
1195.00,100.25
1194.00,100.25
1193.00,100.25
1192.00,100.24
1191.00,100.24
1190.00,100.25
1189.00,100.25
1188.00,100.26
1187.00,100.27
1186.00,100.27
1185.00,100.27
1184.00,100.27
1183.00,100.26
1182.00,100.26
1181.00,100.25
1180.00,100.25
1179.00,100.25
1178.00,100.25
1177.00,100.26
1176.00,100.27
1175.00,100.27
1174.00,100.28
1173.00,100.28
1172.00,100.28
1171.00,100.28
1170.00,100.28
1169.00,100.28
1168.00,100.28
1167.00,100.28
1166.00,100.29
1165.00,100.29
1164.00,100.29
1163.00,100.28
1162.00,100.28
1161.00,100.27
1160.00,100.27
1159.00,100.27
1158.00,100.28
1157.00,100.28
1156.00,100.28
1155.00,100.27
1154.00,100.27
1153.00,100.26
1152.00,100.25
1151.00,100.26
1150.00,100.26
1149.00,100.26
1148.00,100.26
1147.00,100.26
1146.00,100.27
1145.00,100.27
1144.00,100.28
1143.00,100.28
1142.00,100.28
1141.00,100.27
1140.00,100.27
1139.00,100.27
1138.00,100.27
1137.00,100.28
1136.00,100.29
1135.00,100.29
1134.00,100.29
1133.00,100.29
1132.00,100.29
1131.00,100.29
1130.00,100.29
1129.00,100.30
1128.00,100.30
1127.00,100.30
1126.00,100.30
1125.00,100.29
1124.00,100.29
1123.00,100.28
1122.00,100.29
1121.00,100.29
1120.00,100.29
1119.00,100.28
1118.00,100.28
1117.00,100.28
1116.00,100.29
1115.00,100.29
1114.00,100.29
1113.00,100.29
1112.00,100.29
1111.00,100.28
1110.00,100.28
1109.00,100.27
1108.00,100.27
1107.00,100.27
1106.00,100.27
1105.00,100.27
1104.00,100.27
1103.00,100.27
1102.00,100.27
1101.00,100.27
1100.00,100.27
1099.00,100.27
1098.00,100.27
1097.00,100.27
1096.00,100.27
1095.00,100.26
1094.00,100.25
1093.00,100.25
1092.00,100.24
1091.00,100.24
1090.00,100.23
1089.00,100.23
1088.00,100.23
1087.00,100.24
1086.00,100.25
1085.00,100.26
1084.00,100.27
1083.00,100.27
1082.00,100.26
1081.00,100.26
1080.00,100.26
1079.00,100.25
1078.00,100.24
1077.00,100.23
1076.00,100.23
1075.00,100.23
1074.00,100.24
1073.00,100.25
1072.00,100.26
1071.00,100.26
1070.00,100.26
1069.00,100.25
1068.00,100.25
1067.00,100.25
1066.00,100.26
1065.00,100.26
1064.00,100.27
1063.00,100.27
1062.00,100.27
1061.00,100.26
1060.00,100.26
1059.00,100.26
1058.00,100.26
1057.00,100.26
1056.00,100.26
1055.00,100.27
1054.00,100.28
1053.00,100.29
1052.00,100.30
1051.00,100.30
1050.00,100.30
1049.00,100.30
1048.00,100.29
1047.00,100.27
1046.00,100.26
1045.00,100.25
1044.00,100.26
1043.00,100.27
1042.00,100.27
1041.00,100.27
1040.00,100.27
1039.00,100.27
1038.00,100.28
1037.00,100.28
1036.00,100.29
1035.00,100.29
1034.00,100.29
1033.00,100.29
1032.00,100.29
1031.00,100.28
1030.00,100.29
1029.00,100.30
1028.00,100.31
1027.00,100.32
1026.00,100.34
1025.00,100.35
1024.00,100.36
1023.00,100.38
1022.00,100.40
1021.00,100.41
1020.00,100.42
1019.00,100.43
1018.00,100.44
1017.00,100.45
1016.00,100.45
1015.00,100.44
1014.00,100.42
1013.00,100.40
1012.00,100.38
1011.00,100.36
1010.00,100.35
1009.00,100.34
1008.00,100.33
1007.00,100.31
1006.00,100.30
1005.00,100.30
1004.00,100.30
1003.00,100.30
1002.00,100.30
1001.00,100.30
1000.00,100.30
999.00,100.29
998.00,100.30
997.00,100.30
996.00,100.30
995.00,100.30
994.00,100.30
993.00,100.30
992.00,100.30
991.00,100.30
990.00,100.29
989.00,100.29
988.00,100.28
987.00,100.27
986.00,100.26
985.00,100.25
984.00,100.25
983.00,100.26
982.00,100.27
981.00,100.28
980.00,100.28
979.00,100.27
978.00,100.26
977.00,100.26
976.00,100.26
975.00,100.27
974.00,100.28
973.00,100.28
972.00,100.29
971.00,100.29
970.00,100.29
969.00,100.28
968.00,100.28
967.00,100.27
966.00,100.27
965.00,100.28
964.00,100.28
963.00,100.28
962.00,100.28
961.00,100.28
960.00,100.27
959.00,100.27
958.00,100.26
957.00,100.27
956.00,100.27
955.00,100.27
954.00,100.26
953.00,100.26
952.00,100.26
951.00,100.26
950.00,100.26
949.00,100.26
948.00,100.26
947.00,100.26
946.00,100.27
945.00,100.28
944.00,100.29
943.00,100.29
942.00,100.28
941.00,100.27
940.00,100.27
939.00,100.27
938.00,100.27
937.00,100.27
936.00,100.28
935.00,100.28
934.00,100.28
933.00,100.27
932.00,100.26
931.00,100.27
930.00,100.28
929.00,100.29
928.00,100.30
927.00,100.29
926.00,100.28
925.00,100.27
924.00,100.27
923.00,100.27
922.00,100.28
921.00,100.29
920.00,100.30
919.00,100.30
918.00,100.29
917.00,100.29
916.00,100.28
915.00,100.28
914.00,100.27
913.00,100.28
912.00,100.29
911.00,100.30
910.00,100.31
909.00,100.31
908.00,100.30
907.00,100.28
906.00,100.28
905.00,100.28
904.00,100.28
903.00,100.30
902.00,100.31
901.00,100.31
900.00,100.31
899.00,100.30
898.00,100.30
897.00,100.29
896.00,100.29
895.00,100.29
894.00,100.29
893.00,100.29
892.00,100.29
891.00,100.29
890.00,100.30
889.00,100.30
888.00,100.29
887.00,100.29
886.00,100.29
885.00,100.29
884.00,100.29
883.00,100.29
882.00,100.30
881.00,100.31
880.00,100.31
879.00,100.30
878.00,100.29
877.00,100.28
876.00,100.28
875.00,100.27
874.00,100.27
873.00,100.27
872.00,100.28
871.00,100.29
870.00,100.29
869.00,100.29
868.00,100.28
867.00,100.28
866.00,100.28
865.00,100.29
864.00,100.29
863.00,100.29
862.00,100.28
861.00,100.28
860.00,100.29
859.00,100.29
858.00,100.29
857.00,100.29
856.00,100.29
855.00,100.29
854.00,100.30
853.00,100.30
852.00,100.29
851.00,100.29
850.00,100.29
849.00,100.29
848.00,100.29
847.00,100.30
846.00,100.30
845.00,100.32
844.00,100.33
843.00,100.34
842.00,100.34
841.00,100.34
840.00,100.34
839.00,100.33
838.00,100.32
837.00,100.32
836.00,100.31
835.00,100.31
834.00,100.31
833.00,100.31
832.00,100.31
831.00,100.30
830.00,100.30
829.00,100.29
828.00,100.29
827.00,100.28
826.00,100.30
825.00,100.32
824.00,100.34
823.00,100.35
822.00,100.34
821.00,100.32
820.00,100.30
819.00,100.28
818.00,100.26
817.00,100.25
816.00,100.26
815.00,100.27
814.00,100.29
813.00,100.30
812.00,100.31
811.00,100.32
810.00,100.33
809.00,100.34
808.00,100.34
807.00,100.33
806.00,100.32
805.00,100.31
804.00,100.30
803.00,100.29
802.00,100.29
801.00,100.29
800.00,100.30
799.00,100.30
798.00,100.31
797.00,100.32
796.00,100.32
795.00,100.32
794.00,100.31
793.00,100.30
792.00,100.29
791.00,100.29
790.00,100.29
789.00,100.30
788.00,100.31
787.00,100.32
786.00,100.32
785.00,100.32
784.00,100.31
783.00,100.30
782.00,100.29
781.00,100.28
780.00,100.28
779.00,100.29
778.00,100.30
777.00,100.32
776.00,100.34
775.00,100.34
774.00,100.33
773.00,100.32
772.00,100.31
771.00,100.31
770.00,100.31
769.00,100.30
768.00,100.31
767.00,100.32
766.00,100.34
765.00,100.35
764.00,100.35
763.00,100.33
762.00,100.31
761.00,100.31
760.00,100.31
759.00,100.31
758.00,100.30
757.00,100.30
756.00,100.30
755.00,100.30
754.00,100.31
753.00,100.31
752.00,100.31
751.00,100.31
750.00,100.32
749.00,100.31
748.00,100.31
747.00,100.31
746.00,100.30
745.00,100.30
744.00,100.30
743.00,100.30
742.00,100.32
741.00,100.33
740.00,100.34
739.00,100.34
738.00,100.34
737.00,100.32
736.00,100.30
735.00,100.29
734.00,100.28
733.00,100.28
732.00,100.28
731.00,100.29
730.00,100.32
729.00,100.34
728.00,100.35
727.00,100.35
726.00,100.34
725.00,100.33
724.00,100.33
723.00,100.34
722.00,100.36
721.00,100.37
720.00,100.37
719.00,100.36
718.00,100.35
717.00,100.35
716.00,100.35
715.00,100.34
714.00,100.33
713.00,100.32
712.00,100.32
711.00,100.33
710.00,100.34
709.00,100.34
708.00,100.34
707.00,100.33
706.00,100.31
705.00,100.30
704.00,100.30
703.00,100.31
702.00,100.31
701.00,100.31
700.00,100.30
699.00,100.29
698.00,100.28
697.00,100.29
696.00,100.29
695.00,100.30
694.00,100.31
693.00,100.31
692.00,100.31
691.00,100.32
690.00,100.31
689.00,100.31
688.00,100.31
687.00,100.32
686.00,100.32
685.00,100.31
684.00,100.30
683.00,100.30
682.00,100.32
681.00,100.35
680.00,100.36
679.00,100.37
678.00,100.35
677.00,100.33
676.00,100.32
675.00,100.32
674.00,100.32
673.00,100.32
672.00,100.33
671.00,100.35
670.00,100.40
669.00,100.47
668.00,100.51
667.00,100.46
666.00,100.38
665.00,100.33
664.00,100.30
663.00,100.27
662.00,100.26
661.00,100.26
660.00,100.27
659.00,100.29
658.00,100.31
657.00,100.34
656.00,100.36
655.00,100.35
654.00,100.34
653.00,100.32
652.00,100.32
651.00,100.31
650.00,100.30
