Created as New Dataset,Sample 299 By iruser Date Friday, March 13 2026
cm-1,%T
4200.00,100.61
4199.00,100.61
4198.00,100.60
4197.00,100.60
4196.00,100.59
4195.00,100.59
4194.00,100.60
4193.00,100.60
4192.00,100.60
4191.00,100.60
4190.00,100.60
4189.00,100.60
4188.00,100.60
4187.00,100.60
4186.00,100.60
4185.00,100.60
4184.00,100.60
4183.00,100.60
4182.00,100.60
4181.00,100.60
4180.00,100.60
4179.00,100.60
4178.00,100.61
4177.00,100.61
4176.00,100.61
4175.00,100.60
4174.00,100.60
4173.00,100.60
4172.00,100.60
4171.00,100.60
4170.00,100.60
4169.00,100.60
4168.00,100.60
4167.00,100.60
4166.00,100.60
4165.00,100.59
4164.00,100.58
4163.00,100.58
4162.00,100.58
4161.00,100.59
4160.00,100.59
4159.00,100.59
4158.00,100.59
4157.00,100.58
4156.00,100.58
4155.00,100.59
4154.00,100.59
4153.00,100.60
4152.00,100.60
4151.00,100.60
4150.00,100.60
4149.00,100.60
4148.00,100.60
4147.00,100.60
4146.00,100.60
4145.00,100.59
4144.00,100.59
4143.00,100.58
4142.00,100.58
4141.00,100.58
4140.00,100.58
4139.00,100.58
4138.00,100.58
4137.00,100.58
4136.00,100.58
4135.00,100.59
4134.00,100.58
4133.00,100.58
4132.00,100.59
4131.00,100.59
4130.00,100.60
4129.00,100.60
4128.00,100.60
4127.00,100.60
4126.00,100.60
4125.00,100.60
4124.00,100.59
4123.00,100.59
4122.00,100.59
4121.00,100.59
4120.00,100.59
4119.00,100.59
4118.00,100.59
4117.00,100.58
4116.00,100.58
4115.00,100.58
4114.00,100.57
4113.00,100.57
4112.00,100.57
4111.00,100.57
4110.00,100.57
4109.00,100.58
4108.00,100.58
4107.00,100.58
4106.00,100.58
4105.00,100.58
4104.00,100.58
4103.00,100.58
4102.00,100.58
4101.00,100.58
4100.00,100.57
4099.00,100.57
4098.00,100.57
4097.00,100.58
4096.00,100.58
4095.00,100.59
4094.00,100.59
4093.00,100.60
4092.00,100.60
4091.00,100.60
4090.00,100.59
4089.00,100.58
4088.00,100.58
4087.00,100.58
4086.00,100.58
4085.00,100.58
4084.00,100.58
4083.00,100.58
4082.00,100.58
4081.00,100.58
4080.00,100.58
4079.00,100.58
4078.00,100.57
4077.00,100.57
4076.00,100.57
4075.00,100.57
4074.00,100.57
4073.00,100.57
4072.00,100.56
4071.00,100.56
4070.00,100.57
4069.00,100.57
4068.00,100.57
4067.00,100.57
4066.00,100.57
4065.00,100.56
4064.00,100.56
4063.00,100.56
4062.00,100.56
4061.00,100.57
4060.00,100.57
4059.00,100.58
4058.00,100.58
4057.00,100.57
4056.00,100.57
4055.00,100.56
4054.00,100.57
4053.00,100.57
4052.00,100.57
4051.00,100.57
4050.00,100.57
4049.00,100.57
4048.00,100.57
4047.00,100.57
4046.00,100.58
4045.00,100.58
4044.00,100.58
4043.00,100.57
4042.00,100.57
4041.00,100.57
4040.00,100.58
4039.00,100.58
4038.00,100.58
4037.00,100.58
4036.00,100.58
4035.00,100.58
4034.00,100.57
4033.00,100.57
4032.00,100.57
4031.00,100.57
4030.00,100.57
4029.00,100.56
4028.00,100.56
4027.00,100.56
4026.00,100.56
4025.00,100.56
4024.00,100.56
4023.00,100.56
4022.00,100.56
4021.00,100.57
4020.00,100.57
4019.00,100.57
4018.00,100.57
4017.00,100.57
4016.00,100.57
4015.00,100.57
4014.00,100.57
4013.00,100.57
4012.00,100.57
4011.00,100.57
4010.00,100.57
4009.00,100.57
4008.00,100.57
4007.00,100.57
4006.00,100.57
4005.00,100.57
4004.00,100.57
4003.00,100.57
4002.00,100.56
4001.00,100.56
4000.00,100.56
3999.00,100.56
3998.00,100.57
3997.00,100.57
3996.00,100.57
3995.00,100.58
3994.00,100.58
3993.00,100.58
3992.00,100.58
3991.00,100.57
3990.00,100.57
3989.00,100.57
3988.00,100.57
3987.00,100.58
3986.00,100.58
3985.00,100.58
3984.00,100.58
3983.00,100.58
3982.00,100.57
3981.00,100.57
3980.00,100.56
3979.00,100.56
3978.00,100.56
3977.00,100.57
3976.00,100.57
3975.00,100.57
3974.00,100.57
3973.00,100.57
3972.00,100.57
3971.00,100.57
3970.00,100.56
3969.00,100.56
3968.00,100.56
3967.00,100.57
3966.00,100.57
3965.00,100.57
3964.00,100.57
3963.00,100.57
3962.00,100.57
3961.00,100.57
3960.00,100.57
3959.00,100.56
3958.00,100.56
3957.00,100.56
3956.00,100.56
3955.00,100.56
3954.00,100.57
3953.00,100.57
3952.00,100.57
3951.00,100.57
3950.00,100.57
3949.00,100.57
3948.00,100.57
3947.00,100.57
3946.00,100.57
3945.00,100.57
3944.00,100.57
3943.00,100.57
3942.00,100.58
3941.00,100.57
3940.00,100.57
3939.00,100.56
3938.00,100.56
3937.00,100.56
3936.00,100.56
3935.00,100.56
3934.00,100.56
3933.00,100.57
3932.00,100.57
3931.00,100.57
3930.00,100.56
3929.00,100.57
3928.00,100.57
3927.00,100.57
3926.00,100.57
3925.00,100.58
3924.00,100.58
3923.00,100.58
3922.00,100.58
3921.00,100.57
3920.00,100.57
3919.00,100.56
3918.00,100.56
3917.00,100.56
3916.00,100.56
3915.00,100.56
3914.00,100.56
3913.00,100.56
3912.00,100.56
3911.00,100.56
3910.00,100.57
3909.00,100.58
3908.00,100.58
3907.00,100.59
3906.00,100.59
3905.00,100.58
3904.00,100.58
3903.00,100.58
3902.00,100.58
3901.00,100.57
3900.00,100.57
3899.00,100.57
3898.00,100.57
3897.00,100.58
3896.00,100.58
3895.00,100.58
3894.00,100.58
3893.00,100.57
3892.00,100.57
3891.00,100.58
3890.00,100.59
3889.00,100.60
3888.00,100.59
3887.00,100.58
3886.00,100.59
3885.00,100.59
3884.00,100.60
3883.00,100.59
3882.00,100.58
3881.00,100.57
3880.00,100.57
3879.00,100.58
3878.00,100.58
3877.00,100.58
3876.00,100.58
3875.00,100.59
3874.00,100.60
3873.00,100.60
3872.00,100.59
3871.00,100.58
3870.00,100.57
3869.00,100.58
3868.00,100.58
3867.00,100.57
3866.00,100.57
3865.00,100.57
3864.00,100.57
3863.00,100.57
3862.00,100.57
3861.00,100.58
3860.00,100.58
3859.00,100.59
3858.00,100.61
3857.00,100.63
3856.00,100.64
3855.00,100.63
3854.00,100.62
3853.00,100.62
3852.00,100.61
3851.00,100.59
3850.00,100.57
3849.00,100.57
3848.00,100.57
3847.00,100.58
3846.00,100.59
3845.00,100.60
3844.00,100.61
3843.00,100.61
3842.00,100.61
3841.00,100.60
3840.00,100.59
3839.00,100.59
3838.00,100.60
3837.00,100.60
3836.00,100.61
3835.00,100.60
3834.00,100.59
3833.00,100.59
3832.00,100.58
3831.00,100.58
3830.00,100.58
3829.00,100.58
3828.00,100.57
3827.00,100.58
3826.00,100.59
3825.00,100.60
3824.00,100.59
3823.00,100.58
3822.00,100.57
3821.00,100.58
3820.00,100.59
3819.00,100.59
3818.00,100.59
3817.00,100.59
3816.00,100.59
3815.00,100.59
3814.00,100.58
3813.00,100.58
3812.00,100.57
3811.00,100.58
3810.00,100.59
3809.00,100.58
3808.00,100.58
3807.00,100.58
3806.00,100.59
3805.00,100.60
3804.00,100.60
3803.00,100.59
3802.00,100.59
3801.00,100.60
3800.00,100.60
3799.00,100.59
3798.00,100.58
3797.00,100.58
3796.00,100.58
3795.00,100.58
3794.00,100.58
3793.00,100.58
3792.00,100.57
3791.00,100.58
3790.00,100.58
3789.00,100.58
3788.00,100.58
3787.00,100.58
3786.00,100.58
3785.00,100.58
3784.00,100.58
3783.00,100.58
3782.00,100.58
3781.00,100.57
3780.00,100.57
3779.00,100.57
3778.00,100.58
3777.00,100.58
3776.00,100.58
3775.00,100.58
3774.00,100.59
3773.00,100.59
3772.00,100.58
3771.00,100.58
3770.00,100.58
3769.00,100.58
3768.00,100.58
3767.00,100.58
3766.00,100.58
3765.00,100.58
3764.00,100.58
3763.00,100.58
3762.00,100.58
3761.00,100.58
3760.00,100.59
3759.00,100.59
3758.00,100.59
3757.00,100.60
3756.00,100.60
3755.00,100.60
3754.00,100.60
3753.00,100.61
3752.00,100.61
3751.00,100.62
3750.00,100.63
3749.00,100.64
3748.00,100.64
3747.00,100.63
3746.00,100.62
3745.00,100.61
3744.00,100.61
3743.00,100.62
3742.00,100.60
3741.00,100.60
3740.00,100.60
3739.00,100.60
3738.00,100.59
3737.00,100.59
3736.00,100.59
3735.00,100.58
3734.00,100.58
3733.00,100.57
3732.00,100.57
3731.00,100.57
3730.00,100.58
3729.00,100.58
3728.00,100.58
3727.00,100.59
3726.00,100.60
3725.00,100.60
3724.00,100.60
3723.00,100.59
3722.00,100.59
3721.00,100.59
3720.00,100.59
3719.00,100.59
3718.00,100.59
3717.00,100.60
3716.00,100.60
3715.00,100.61
3714.00,100.62
3713.00,100.62
3712.00,100.62
3711.00,100.61
3710.00,100.60
3709.00,100.59
3708.00,100.58
3707.00,100.58
3706.00,100.59
3705.00,100.59
3704.00,100.59
3703.00,100.59
3702.00,100.60
3701.00,100.60
3700.00,100.60
3699.00,100.59
3698.00,100.58
3697.00,100.58
3696.00,100.58
3695.00,100.59
3694.00,100.60
3693.00,100.61
3692.00,100.61
3691.00,100.61
3690.00,100.60
3689.00,100.59
3688.00,100.59
3687.00,100.58
3686.00,100.58
3685.00,100.57
3684.00,100.57
3683.00,100.58
3682.00,100.58
3681.00,100.58
3680.00,100.59
3679.00,100.60
3678.00,100.61
3677.00,100.61
3676.00,100.61
3675.00,100.62
3674.00,100.62
3673.00,100.62
3672.00,100.61
3671.00,100.60
3670.00,100.60
3669.00,100.60
3668.00,100.59
3667.00,100.58
3666.00,100.58
3665.00,100.58
3664.00,100.58
3663.00,100.58
3662.00,100.59
3661.00,100.59
3660.00,100.60
3659.00,100.60
3658.00,100.60
3657.00,100.60
3656.00,100.60
3655.00,100.61
3654.00,100.61
3653.00,100.61
3652.00,100.61
3651.00,100.61
3650.00,100.60
3649.00,100.60
3648.00,100.60
3647.00,100.60
3646.00,100.60
3645.00,100.59
3644.00,100.59
3643.00,100.59
3642.00,100.58
3641.00,100.58
3640.00,100.58
3639.00,100.58
3638.00,100.59
3637.00,100.59
3636.00,100.59
3635.00,100.59
3634.00,100.59
3633.00,100.60
3632.00,100.60
3631.00,100.60
3630.00,100.59
3629.00,100.60
3628.00,100.60
3627.00,100.60
3626.00,100.59
3625.00,100.58
3624.00,100.58
3623.00,100.59
3622.00,100.59
3621.00,100.59
3620.00,100.60
3619.00,100.60
3618.00,100.60
3617.00,100.60
3616.00,100.59
3615.00,100.59
3614.00,100.59
3613.00,100.59
3612.00,100.60
3611.00,100.61
3610.00,100.61
3609.00,100.61
3608.00,100.60
3607.00,100.60
3606.00,100.59
3605.00,100.58
3604.00,100.57
3603.00,100.56
3602.00,100.57
3601.00,100.57
3600.00,100.58
3599.00,100.59
3598.00,100.59
3597.00,100.59
3596.00,100.59
3595.00,100.59
3594.00,100.59
3593.00,100.59
3592.00,100.59
3591.00,100.59
3590.00,100.59
3589.00,100.59
3588.00,100.59
3587.00,100.58
3586.00,100.58
3585.00,100.58
3584.00,100.58
3583.00,100.59
3582.00,100.59
3581.00,100.59
3580.00,100.59
3579.00,100.59
3578.00,100.59
3577.00,100.59
3576.00,100.59
3575.00,100.59
3574.00,100.59
3573.00,100.59
3572.00,100.60
3571.00,100.60
3570.00,100.60
3569.00,100.60
3568.00,100.60
3567.00,100.59
3566.00,100.59
3565.00,100.59
3564.00,100.59
3563.00,100.59
3562.00,100.59
3561.00,100.59
3560.00,100.59
3559.00,100.59
3558.00,100.59
3557.00,100.59
3556.00,100.59
3555.00,100.59
3554.00,100.59
3553.00,100.58
3552.00,100.58
3551.00,100.58
3550.00,100.58
3549.00,100.59
3548.00,100.59
3547.00,100.60
3546.00,100.60
3545.00,100.60
3544.00,100.60
3543.00,100.60
3542.00,100.59
3541.00,100.59
3540.00,100.59
3539.00,100.59
3538.00,100.59
3537.00,100.59
3536.00,100.59
3535.00,100.58
3534.00,100.58
3533.00,100.58
3532.00,100.58
3531.00,100.58
3530.00,100.57
3529.00,100.57
3528.00,100.57
3527.00,100.58
3526.00,100.58
3525.00,100.58
3524.00,100.58
3523.00,100.58
3522.00,100.58
3521.00,100.58
3520.00,100.59
3519.00,100.59
3518.00,100.59
3517.00,100.59
3516.00,100.59
3515.00,100.58
3514.00,100.58
3513.00,100.58
3512.00,100.58
3511.00,100.57
3510.00,100.57
3509.00,100.57
3508.00,100.58
3507.00,100.58
3506.00,100.58
3505.00,100.58
3504.00,100.58
3503.00,100.59
3502.00,100.59
3501.00,100.59
3500.00,100.59
3499.00,100.59
3498.00,100.59
3497.00,100.59
3496.00,100.59
3495.00,100.59
3494.00,100.59
3493.00,100.58
3492.00,100.57
3491.00,100.57
3490.00,100.57
3489.00,100.57
3488.00,100.57
3487.00,100.57
3486.00,100.57
3485.00,100.57
3484.00,100.57
3483.00,100.57
3482.00,100.58
3481.00,100.58
3480.00,100.59
3479.00,100.59
3478.00,100.59
3477.00,100.59
3476.00,100.59
3475.00,100.59
3474.00,100.58
3473.00,100.58
3472.00,100.58
3471.00,100.57
3470.00,100.57
3469.00,100.57
3468.00,100.57
3467.00,100.57
3466.00,100.57
3465.00,100.57
3464.00,100.57
3463.00,100.57
3462.00,100.57
3461.00,100.57
3460.00,100.57
3459.00,100.57
3458.00,100.57
3457.00,100.58
3456.00,100.58
3455.00,100.58
3454.00,100.58
3453.00,100.58
3452.00,100.58
3451.00,100.58
3450.00,100.58
3449.00,100.58
3448.00,100.57
3447.00,100.58
3446.00,100.58
3445.00,100.58
3444.00,100.58
3443.00,100.58
3442.00,100.58
3441.00,100.58
3440.00,100.58
3439.00,100.58
3438.00,100.58
3437.00,100.58
3436.00,100.58
3435.00,100.58
3434.00,100.57
3433.00,100.57
3432.00,100.57
3431.00,100.57
3430.00,100.57
3429.00,100.57
3428.00,100.57
3427.00,100.57
3426.00,100.58
3425.00,100.58
3424.00,100.58
3423.00,100.58
3422.00,100.57
3421.00,100.56
3420.00,100.56
3419.00,100.56
3418.00,100.56
3417.00,100.56
3416.00,100.56
3415.00,100.56
3414.00,100.56
3413.00,100.56
3412.00,100.57
3411.00,100.57
3410.00,100.57
3409.00,100.57
3408.00,100.58
3407.00,100.58
3406.00,100.58
3405.00,100.58
3404.00,100.58
3403.00,100.58
3402.00,100.58
3401.00,100.58
3400.00,100.58
3399.00,100.58
3398.00,100.57
3397.00,100.57
3396.00,100.57
3395.00,100.57
3394.00,100.58
3393.00,100.58
3392.00,100.59
3391.00,100.59
3390.00,100.59
3389.00,100.58
3388.00,100.57
3387.00,100.57
3386.00,100.56
3385.00,100.56
3384.00,100.56
3383.00,100.56
3382.00,100.56
3381.00,100.57
3380.00,100.57
3379.00,100.57
3378.00,100.57
3377.00,100.57
3376.00,100.57
3375.00,100.57
3374.00,100.57
3373.00,100.57
3372.00,100.57
3371.00,100.56
3370.00,100.57
3369.00,100.57
3368.00,100.57
3367.00,100.57
3366.00,100.57
3365.00,100.57
3364.00,100.57
3363.00,100.57
3362.00,100.57
3361.00,100.57
3360.00,100.58
3359.00,100.58
3358.00,100.57
3357.00,100.57
3356.00,100.57
3355.00,100.57
3354.00,100.57
3353.00,100.57
3352.00,100.57
3351.00,100.57
3350.00,100.57
3349.00,100.57
3348.00,100.57
3347.00,100.57
3346.00,100.57
3345.00,100.57
3344.00,100.58
3343.00,100.58
3342.00,100.58
3341.00,100.58
3340.00,100.58
3339.00,100.58
3338.00,100.58
3337.00,100.58
3336.00,100.58
3335.00,100.58
3334.00,100.58
3333.00,100.58
3332.00,100.58
3331.00,100.58
3330.00,100.58
3329.00,100.58
3328.00,100.57
3327.00,100.57
3326.00,100.57
3325.00,100.57
3324.00,100.57
3323.00,100.57
3322.00,100.57
3321.00,100.57
3320.00,100.57
3319.00,100.57
3318.00,100.57
3317.00,100.57
3316.00,100.57
3315.00,100.57
3314.00,100.57
3313.00,100.57
3312.00,100.56
3311.00,100.56
3310.00,100.56
3309.00,100.56
3308.00,100.56
3307.00,100.56
3306.00,100.57
3305.00,100.57
3304.00,100.57
3303.00,100.57
3302.00,100.57
3301.00,100.57
3300.00,100.56
3299.00,100.56
3298.00,100.56
3297.00,100.56
3296.00,100.56
3295.00,100.57
3294.00,100.57
3293.00,100.57
3292.00,100.58
3291.00,100.58
3290.00,100.58
3289.00,100.58
3288.00,100.58
3287.00,100.57
3286.00,100.57
3285.00,100.57
3284.00,100.57
3283.00,100.56
3282.00,100.56
3281.00,100.56
3280.00,100.56
3279.00,100.57
3278.00,100.57
3277.00,100.57
3276.00,100.57
3275.00,100.57
3274.00,100.58
3273.00,100.58
3272.00,100.58
3271.00,100.57
3270.00,100.57
3269.00,100.57
3268.00,100.56
3267.00,100.56
3266.00,100.57
3265.00,100.57
3264.00,100.57
3263.00,100.57
3262.00,100.57
3261.00,100.57
3260.00,100.57
3259.00,100.57
3258.00,100.57
3257.00,100.57
3256.00,100.57
3255.00,100.57
3254.00,100.57
3253.00,100.57
3252.00,100.57
3251.00,100.57
3250.00,100.57
3249.00,100.57
3248.00,100.57
3247.00,100.57
3246.00,100.57
3245.00,100.58
3244.00,100.58
3243.00,100.58
3242.00,100.58
3241.00,100.57
3240.00,100.57
3239.00,100.56
3238.00,100.56
3237.00,100.56
3236.00,100.57
3235.00,100.57
3234.00,100.58
3233.00,100.58
3232.00,100.58
3231.00,100.58
3230.00,100.58
3229.00,100.58
3228.00,100.58
3227.00,100.57
3226.00,100.57
3225.00,100.57
3224.00,100.57
3223.00,100.57
3222.00,100.56
3221.00,100.56
3220.00,100.56
3219.00,100.56
3218.00,100.56
3217.00,100.57
3216.00,100.57
3215.00,100.58
3214.00,100.58
3213.00,100.58
3212.00,100.58
3211.00,100.58
3210.00,100.58
3209.00,100.58
3208.00,100.58
3207.00,100.58
3206.00,100.58
3205.00,100.58
3204.00,100.58
3203.00,100.58
3202.00,100.58
3201.00,100.58
3200.00,100.58
3199.00,100.57
3198.00,100.57
3197.00,100.57
3196.00,100.57
3195.00,100.58
3194.00,100.58
3193.00,100.58
3192.00,100.58
3191.00,100.57
3190.00,100.58
3189.00,100.58
3188.00,100.58
3187.00,100.58
3186.00,100.57
3185.00,100.57
3184.00,100.57
3183.00,100.57
3182.00,100.57
3181.00,100.58
3180.00,100.58
3179.00,100.57
3178.00,100.57
3177.00,100.56
3176.00,100.56
3175.00,100.57
3174.00,100.58
3173.00,100.58
3172.00,100.59
3171.00,100.59
3170.00,100.58
3169.00,100.58
3168.00,100.58
3167.00,100.57
3166.00,100.57
3165.00,100.57
3164.00,100.57
3163.00,100.57
3162.00,100.57
3161.00,100.57
3160.00,100.57
3159.00,100.57
3158.00,100.57
3157.00,100.57
3156.00,100.57
3155.00,100.57
3154.00,100.57
3153.00,100.57
3152.00,100.57
3151.00,100.57
3150.00,100.57
3149.00,100.58
3148.00,100.58
3147.00,100.57
3146.00,100.57
3145.00,100.57
3144.00,100.57
3143.00,100.57
3142.00,100.57
3141.00,100.57
3140.00,100.57
3139.00,100.57
3138.00,100.57
3137.00,100.57
3136.00,100.57
3135.00,100.57
3134.00,100.58
3133.00,100.58
3132.00,100.58
3131.00,100.58
3130.00,100.58
3129.00,100.58
3128.00,100.58
3127.00,100.58
3126.00,100.58
3125.00,100.58
3124.00,100.58
3123.00,100.58
3122.00,100.57
3121.00,100.57
3120.00,100.57
3119.00,100.58
3118.00,100.58
3117.00,100.58
3116.00,100.58
3115.00,100.58
3114.00,100.58
3113.00,100.58
3112.00,100.58
3111.00,100.58
3110.00,100.58
3109.00,100.58
3108.00,100.58
3107.00,100.59
3106.00,100.59
3105.00,100.59
3104.00,100.59
3103.00,100.59
3102.00,100.59
3101.00,100.59
3100.00,100.59
3099.00,100.59
3098.00,100.59
3097.00,100.58
3096.00,100.59
3095.00,100.59
3094.00,100.60
3093.00,100.60
3092.00,100.60
3091.00,100.60
3090.00,100.60
3089.00,100.60
3088.00,100.60
3087.00,100.60
3086.00,100.59
3085.00,100.59
3084.00,100.59
3083.00,100.59
3082.00,100.59
3081.00,100.59
3080.00,100.59
3079.00,100.59
3078.00,100.59
3077.00,100.59
3076.00,100.59
3075.00,100.59
3074.00,100.59
3073.00,100.60
3072.00,100.60
3071.00,100.60
3070.00,100.60
3069.00,100.59
3068.00,100.59
3067.00,100.58
3066.00,100.58
3065.00,100.58
3064.00,100.58
3063.00,100.59
3062.00,100.59
3061.00,100.59
3060.00,100.59
3059.00,100.59
3058.00,100.59
3057.00,100.59
3056.00,100.60
3055.00,100.60
3054.00,100.60
3053.00,100.60
3052.00,100.60
3051.00,100.59
3050.00,100.59
3049.00,100.59
3048.00,100.59
3047.00,100.59
3046.00,100.60
3045.00,100.60
3044.00,100.60
3043.00,100.59
3042.00,100.59
3041.00,100.59
3040.00,100.59
3039.00,100.60
3038.00,100.60
3037.00,100.61
3036.00,100.61
3035.00,100.61
3034.00,100.60
3033.00,100.60
3032.00,100.59
3031.00,100.59
3030.00,100.59
3029.00,100.59
3028.00,100.59
3027.00,100.59
3026.00,100.59
3025.00,100.60
3024.00,100.60
3023.00,100.60
3022.00,100.59
3021.00,100.59
3020.00,100.59
3019.00,100.59
3018.00,100.58
3017.00,100.58
3016.00,100.58
3015.00,100.58
3014.00,100.58
3013.00,100.59
3012.00,100.59
3011.00,100.59
3010.00,100.59
3009.00,100.59
3008.00,100.58
3007.00,100.58
3006.00,100.58
3005.00,100.58
3004.00,100.58
3003.00,100.58
3002.00,100.59
3001.00,100.59
3000.00,100.60
2999.00,100.60
2998.00,100.60
2997.00,100.59
2996.00,100.59
2995.00,100.59
2994.00,100.59
2993.00,100.59
2992.00,100.59
2991.00,100.59
2990.00,100.59
2989.00,100.59
2988.00,100.59
2987.00,100.59
2986.00,100.59
2985.00,100.60
2984.00,100.60
2983.00,100.60
2982.00,100.60
2981.00,100.60
2980.00,100.60
2979.00,100.60
2978.00,100.60
2977.00,100.61
2976.00,100.61
2975.00,100.61
2974.00,100.60
2973.00,100.60
2972.00,100.60
2971.00,100.60
2970.00,100.60
2969.00,100.60
2968.00,100.61
2967.00,100.61
2966.00,100.61
2965.00,100.61
2964.00,100.62
2963.00,100.62
2962.00,100.62
2961.00,100.62
2960.00,100.62
2959.00,100.62
2958.00,100.62
2957.00,100.62
2956.00,100.62
2955.00,100.62
2954.00,100.62
2953.00,100.62
2952.00,100.62
2951.00,100.62
2950.00,100.63
2949.00,100.62
2948.00,100.62
2947.00,100.62
2946.00,100.62
2945.00,100.63
2944.00,100.64
2943.00,100.64
2942.00,100.64
2941.00,100.64
2940.00,100.63
2939.00,100.63
2938.00,100.63
2937.00,100.64
2936.00,100.64
2935.00,100.65
2934.00,100.65
2933.00,100.65
2932.00,100.65
2931.00,100.65
2930.00,100.65
2929.00,100.64
2928.00,100.64
2927.00,100.64
2926.00,100.65
2925.00,100.66
2924.00,100.66
2923.00,100.66
2922.00,100.65
2921.00,100.65
2920.00,100.65
2919.00,100.65
2918.00,100.65
2917.00,100.64
2916.00,100.64
2915.00,100.63
2914.00,100.63
2913.00,100.63
2912.00,100.63
2911.00,100.63
2910.00,100.63
2909.00,100.63
2908.00,100.63
2907.00,100.63
2906.00,100.63
2905.00,100.63
2904.00,100.63
2903.00,100.63
2902.00,100.63
2901.00,100.63
2900.00,100.63
2899.00,100.62
2898.00,100.62
2897.00,100.62
2896.00,100.62
2895.00,100.63
2894.00,100.63
2893.00,100.62
2892.00,100.62
2891.00,100.61
2890.00,100.61
2889.00,100.61
2888.00,100.61
2887.00,100.61
2886.00,100.61
2885.00,100.62
2884.00,100.62
2883.00,100.62
2882.00,100.63
2881.00,100.62
2880.00,100.62
2879.00,100.62
2878.00,100.62
2877.00,100.62
2876.00,100.62
2875.00,100.62
2874.00,100.62
2873.00,100.62
2872.00,100.62
2871.00,100.62
2870.00,100.62
2869.00,100.62
2868.00,100.62
2867.00,100.62
2866.00,100.62
2865.00,100.63
2864.00,100.63
2863.00,100.63
2862.00,100.63
2861.00,100.63
2860.00,100.63
2859.00,100.63
2858.00,100.63
2857.00,100.64
2856.00,100.64
2855.00,100.64
2854.00,100.64
2853.00,100.64
2852.00,100.64
2851.00,100.63
2850.00,100.63
2849.00,100.63
2848.00,100.63
2847.00,100.63
2846.00,100.63
2845.00,100.62
2844.00,100.62
2843.00,100.62
2842.00,100.62
2841.00,100.61
2840.00,100.61
2839.00,100.61
2838.00,100.61
2837.00,100.61
2836.00,100.61
2835.00,100.61
2834.00,100.61
2833.00,100.61
2832.00,100.61
2831.00,100.61
2830.00,100.61
2829.00,100.62
2828.00,100.61
2827.00,100.61
2826.00,100.61
2825.00,100.60
2824.00,100.60
2823.00,100.61
2822.00,100.61
2821.00,100.61
2820.00,100.62
2819.00,100.62
2818.00,100.61
2817.00,100.61
2816.00,100.61
2815.00,100.61
2814.00,100.61
2813.00,100.61
2812.00,100.61
2811.00,100.61
2810.00,100.61
2809.00,100.61
2808.00,100.61
2807.00,100.61
2806.00,100.61
2805.00,100.61
2804.00,100.61
2803.00,100.62
2802.00,100.62
2801.00,100.61
2800.00,100.61
2799.00,100.61
2798.00,100.60
2797.00,100.60
2796.00,100.60
2795.00,100.60
2794.00,100.61
2793.00,100.61
2792.00,100.61
2791.00,100.62
2790.00,100.62
2789.00,100.62
2788.00,100.61
2787.00,100.61
2786.00,100.61
2785.00,100.61
2784.00,100.61
2783.00,100.61
2782.00,100.61
2781.00,100.61
2780.00,100.60
2779.00,100.60
2778.00,100.60
2777.00,100.60
2776.00,100.60
2775.00,100.60
2774.00,100.60
2773.00,100.60
2772.00,100.61
2771.00,100.61
2770.00,100.60
2769.00,100.60
2768.00,100.60
2767.00,100.60
2766.00,100.60
2765.00,100.60
2764.00,100.60
2763.00,100.61
2762.00,100.61
2761.00,100.60
2760.00,100.60
2759.00,100.60
2758.00,100.60
2757.00,100.60
2756.00,100.60
2755.00,100.60
2754.00,100.60
2753.00,100.61
2752.00,100.61
2751.00,100.61
2750.00,100.61
2749.00,100.61
2748.00,100.61
2747.00,100.60
2746.00,100.60
2745.00,100.60
2744.00,100.60
2743.00,100.60
2742.00,100.60
2741.00,100.61
2740.00,100.61
2739.00,100.61
2738.00,100.61
2737.00,100.61
2736.00,100.61
2735.00,100.61
2734.00,100.61
2733.00,100.61
2732.00,100.61
2731.00,100.61
2730.00,100.61
2729.00,100.60
2728.00,100.61
2727.00,100.61
2726.00,100.61
2725.00,100.61
2724.00,100.61
2723.00,100.61
2722.00,100.60
2721.00,100.60
2720.00,100.60
2719.00,100.61
2718.00,100.61
2717.00,100.61
2716.00,100.61
2715.00,100.61
2714.00,100.61
2713.00,100.61
2712.00,100.61
2711.00,100.61
2710.00,100.61
2709.00,100.61
2708.00,100.60
2707.00,100.60
2706.00,100.60
2705.00,100.60
2704.00,100.61
2703.00,100.61
2702.00,100.61
2701.00,100.61
2700.00,100.61
2699.00,100.60
2698.00,100.60
2697.00,100.60
2696.00,100.60
2695.00,100.60
2694.00,100.60
2693.00,100.60
2692.00,100.60
2691.00,100.60
2690.00,100.60
2689.00,100.60
2688.00,100.60
2687.00,100.60
2686.00,100.60
2685.00,100.60
2684.00,100.60
2683.00,100.60
2682.00,100.60
2681.00,100.60
2680.00,100.60
2679.00,100.60
2678.00,100.60
2677.00,100.60
2676.00,100.60
2675.00,100.60
2674.00,100.60
2673.00,100.60
2672.00,100.60
2671.00,100.60
2670.00,100.60
2669.00,100.60
2668.00,100.60
2667.00,100.60
2666.00,100.60
2665.00,100.60
2664.00,100.60
2663.00,100.60
2662.00,100.60
2661.00,100.60
2660.00,100.59
2659.00,100.59
2658.00,100.59
2657.00,100.59
2656.00,100.59
2655.00,100.60
2654.00,100.60
2653.00,100.60
2652.00,100.60
2651.00,100.60
2650.00,100.60
2649.00,100.60
2648.00,100.59
2647.00,100.60
2646.00,100.60
2645.00,100.60
2644.00,100.61
2643.00,100.61
2642.00,100.60
2641.00,100.60
2640.00,100.59
2639.00,100.59
2638.00,100.59
2637.00,100.59
2636.00,100.60
2635.00,100.60
2634.00,100.60
2633.00,100.60
2632.00,100.60
2631.00,100.60
2630.00,100.60
2629.00,100.60
2628.00,100.60
2627.00,100.60
2626.00,100.60
2625.00,100.60
2624.00,100.60
2623.00,100.60
2622.00,100.60
2621.00,100.60
2620.00,100.60
2619.00,100.60
2618.00,100.60
2617.00,100.60
2616.00,100.60
2615.00,100.60
2614.00,100.60
2613.00,100.59
2612.00,100.59
2611.00,100.59
2610.00,100.59
2609.00,100.59
2608.00,100.59
2607.00,100.60
2606.00,100.61
2605.00,100.61
2604.00,100.61
2603.00,100.61
2602.00,100.61
2601.00,100.60
2600.00,100.60
2599.00,100.60
2598.00,100.60
2597.00,100.60
2596.00,100.60
2595.00,100.60
2594.00,100.60
2593.00,100.60
2592.00,100.60
2591.00,100.59
2590.00,100.59
2589.00,100.59
2588.00,100.58
2587.00,100.58
2586.00,100.58
2585.00,100.58
2584.00,100.58
2583.00,100.58
2582.00,100.58
2581.00,100.58
2580.00,100.58
2579.00,100.59
2578.00,100.60
2577.00,100.60
2576.00,100.60
2575.00,100.60
2574.00,100.60
2573.00,100.59
2572.00,100.59
2571.00,100.58
2570.00,100.58
2569.00,100.59
2568.00,100.59
2567.00,100.59
2566.00,100.60
2565.00,100.60
2564.00,100.60
2563.00,100.60
2562.00,100.59
2561.00,100.58
2560.00,100.58
2559.00,100.58
2558.00,100.58
2557.00,100.59
2556.00,100.60
2555.00,100.60
2554.00,100.61
2553.00,100.61
2552.00,100.61
2551.00,100.60
2550.00,100.59
2549.00,100.59
2548.00,100.58
2547.00,100.58
2546.00,100.58
2545.00,100.58
2544.00,100.58
2543.00,100.58
2542.00,100.58
2541.00,100.59
2540.00,100.59
2539.00,100.59
2538.00,100.59
2537.00,100.59
2536.00,100.58
2535.00,100.59
2534.00,100.59
2533.00,100.59
2532.00,100.59
2531.00,100.59
2530.00,100.58
2529.00,100.58
2528.00,100.58
2527.00,100.58
2526.00,100.58
2525.00,100.58
2524.00,100.58
2523.00,100.58
2522.00,100.58
2521.00,100.58
2520.00,100.58
2519.00,100.59
2518.00,100.59
2517.00,100.59
2516.00,100.60
2515.00,100.60
2514.00,100.60
2513.00,100.60
2512.00,100.60
2511.00,100.59
2510.00,100.59
2509.00,100.58
2508.00,100.58
2507.00,100.58
2506.00,100.58
2505.00,100.59
2504.00,100.59
2503.00,100.59
2502.00,100.59
2501.00,100.59
2500.00,100.58
2499.00,100.58
2498.00,100.58
2497.00,100.57
2496.00,100.57
2495.00,100.57
2494.00,100.57
2493.00,100.57
2492.00,100.57
2491.00,100.57
2490.00,100.58
2489.00,100.58
2488.00,100.58
2487.00,100.58
2486.00,100.58
2485.00,100.57
2484.00,100.57
2483.00,100.58
2482.00,100.58
2481.00,100.58
2480.00,100.58
2479.00,100.58
2478.00,100.58
2477.00,100.58
2476.00,100.58
2475.00,100.58
2474.00,100.58
2473.00,100.58
2472.00,100.58
2471.00,100.59
2470.00,100.59
2469.00,100.59
2468.00,100.59
2467.00,100.59
2466.00,100.59
2465.00,100.59
2464.00,100.59
2463.00,100.58
2462.00,100.58
2461.00,100.58
2460.00,100.58
2459.00,100.58
2458.00,100.58
2457.00,100.58
2456.00,100.58
2455.00,100.57
2454.00,100.57
2453.00,100.57
2452.00,100.57
2451.00,100.58
2450.00,100.58
2449.00,100.58
2448.00,100.58
2447.00,100.58
2446.00,100.58
2445.00,100.58
2444.00,100.57
2443.00,100.56
2442.00,100.56
2441.00,100.57
2440.00,100.57
2439.00,100.58
2438.00,100.58
2437.00,100.58
2436.00,100.59
2435.00,100.59
2434.00,100.59
2433.00,100.58
2432.00,100.58
2431.00,100.58
2430.00,100.58
2429.00,100.58
2428.00,100.58
2427.00,100.58
2426.00,100.58
2425.00,100.58
2424.00,100.58
2423.00,100.58
2422.00,100.58
2421.00,100.59
2420.00,100.59
2419.00,100.59
2418.00,100.59
2417.00,100.58
2416.00,100.58
2415.00,100.58
2414.00,100.58
2413.00,100.58
2412.00,100.58
2411.00,100.59
2410.00,100.59
2409.00,100.59
2408.00,100.60
2407.00,100.60
2406.00,100.60
2405.00,100.59
2404.00,100.59
2403.00,100.58
2402.00,100.58
2401.00,100.58
2400.00,100.58
2399.00,100.58
2398.00,100.58
2397.00,100.58
2396.00,100.58
2395.00,100.58
2394.00,100.58
2393.00,100.58
2392.00,100.58
2391.00,100.58
2390.00,100.58
2389.00,100.58
2388.00,100.59
2387.00,100.59
2386.00,100.58
2385.00,100.58
2384.00,100.57
2383.00,100.57
2382.00,100.57
2381.00,100.57
2380.00,100.58
2379.00,100.59
2378.00,100.60
2377.00,100.61
2376.00,100.61
2375.00,100.61
2374.00,100.60
2373.00,100.58
2372.00,100.56
2371.00,100.55
2370.00,100.55
2369.00,100.55
2368.00,100.56
2367.00,100.55
2366.00,100.55
2365.00,100.56
2364.00,100.58
2363.00,100.60
2362.00,100.61
2361.00,100.60
2360.00,100.58
2359.00,100.57
2358.00,100.57
2357.00,100.58
2356.00,100.59
2355.00,100.58
2354.00,100.58
2353.00,100.58
2352.00,100.59
2351.00,100.59
2350.00,100.58
2349.00,100.58
2348.00,100.58
2347.00,100.58
2346.00,100.59
2345.00,100.59
2344.00,100.58
2343.00,100.58
2342.00,100.59
2341.00,100.60
2340.00,100.60
2339.00,100.60
2338.00,100.60
2337.00,100.60
2336.00,100.61
2335.00,100.61
2334.00,100.59
2333.00,100.58
2332.00,100.57
2331.00,100.57
2330.00,100.57
2329.00,100.57
2328.00,100.57
2327.00,100.57
2326.00,100.58
2325.00,100.58
2324.00,100.58
2323.00,100.57
2322.00,100.57
2321.00,100.58
2320.00,100.58
2319.00,100.58
2318.00,100.58
2317.00,100.58
2316.00,100.57
2315.00,100.57
2314.00,100.56
2313.00,100.55
2312.00,100.55
2311.00,100.55
2310.00,100.56
2309.00,100.56
2308.00,100.56
2307.00,100.56
2306.00,100.55
2305.00,100.55
2304.00,100.55
2303.00,100.55
2302.00,100.55
2301.00,100.56
2300.00,100.57
2299.00,100.58
2298.00,100.57
2297.00,100.57
2296.00,100.57
2295.00,100.57
2294.00,100.58
2293.00,100.59
2292.00,100.59
2291.00,100.59
2290.00,100.58
2289.00,100.57
2288.00,100.57
2287.00,100.58
2286.00,100.58
2285.00,100.59
2284.00,100.60
2283.00,100.60
2282.00,100.59
2281.00,100.59
2280.00,100.58
2279.00,100.58
2278.00,100.58
2277.00,100.58
2276.00,100.58
2275.00,100.58
2274.00,100.58
2273.00,100.58
2272.00,100.58
2271.00,100.59
2270.00,100.59
2269.00,100.60
2268.00,100.60
2267.00,100.59
2266.00,100.59
2265.00,100.59
2264.00,100.58
2263.00,100.58
2262.00,100.58
2261.00,100.58
2260.00,100.59
2259.00,100.59
2258.00,100.59
2257.00,100.58
2256.00,100.59
2255.00,100.59
2254.00,100.59
2253.00,100.60
2252.00,100.60
2251.00,100.61
2250.00,100.62
2249.00,100.62
2248.00,100.62
2247.00,100.61
2246.00,100.60
2245.00,100.60
2244.00,100.61
2243.00,100.62
2242.00,100.63
2241.00,100.62
2240.00,100.61
2239.00,100.60
2238.00,100.58
2237.00,100.57
2236.00,100.56
2235.00,100.57
2234.00,100.58
2233.00,100.60
2232.00,100.60
2231.00,100.61
2230.00,100.61
2229.00,100.61
2228.00,100.62
2227.00,100.62
2226.00,100.61
2225.00,100.59
2224.00,100.57
2223.00,100.57
2222.00,100.58
2221.00,100.59
2220.00,100.61
2219.00,100.62
2218.00,100.63
2217.00,100.64
2216.00,100.64
2215.00,100.64
2214.00,100.62
2213.00,100.61
2212.00,100.60
2211.00,100.61
2210.00,100.63
2209.00,100.64
2208.00,100.64
2207.00,100.63
2206.00,100.60
2205.00,100.58
2204.00,100.58
2203.00,100.59
2202.00,100.60
2201.00,100.62
2200.00,100.62
2199.00,100.62
2198.00,100.61
2197.00,100.60
2196.00,100.60
2195.00,100.60
2194.00,100.61
2193.00,100.60
2192.00,100.60
2191.00,100.60
2190.00,100.60
2189.00,100.60
2188.00,100.60
2187.00,100.61
2186.00,100.61
2185.00,100.61
2184.00,100.60
2183.00,100.59
2182.00,100.59
2181.00,100.59
2180.00,100.57
2179.00,100.56
2178.00,100.55
2177.00,100.56
2176.00,100.58
2175.00,100.60
2174.00,100.61
2173.00,100.61
2172.00,100.59
2171.00,100.56
2170.00,100.55
2169.00,100.57
2168.00,100.59
2167.00,100.61
2166.00,100.62
2165.00,100.61
2164.00,100.61
2163.00,100.62
2162.00,100.63
2161.00,100.64
2160.00,100.64
2159.00,100.63
2158.00,100.60
2157.00,100.56
2156.00,100.54
2155.00,100.55
2154.00,100.57
2153.00,100.58
2152.00,100.58
2151.00,100.57
2150.00,100.56
2149.00,100.56
2148.00,100.57
2147.00,100.57
2146.00,100.58
2145.00,100.59
2144.00,100.60
2143.00,100.61
2142.00,100.62
2141.00,100.62
2140.00,100.62
2139.00,100.60
2138.00,100.59
2137.00,100.59
2136.00,100.58
2135.00,100.59
2134.00,100.60
2133.00,100.60
2132.00,100.58
2131.00,100.56
2130.00,100.54
2129.00,100.54
2128.00,100.55
2127.00,100.56
2126.00,100.58
2125.00,100.60
2124.00,100.61
2123.00,100.61
2122.00,100.60
2121.00,100.59
2120.00,100.59
2119.00,100.60
2118.00,100.61
2117.00,100.62
2116.00,100.62
2115.00,100.62
2114.00,100.61
2113.00,100.60
2112.00,100.59
2111.00,100.58
2110.00,100.58
2109.00,100.58
2108.00,100.59
2107.00,100.59
2106.00,100.59
2105.00,100.59
2104.00,100.59
2103.00,100.58
2102.00,100.59
2101.00,100.60
2100.00,100.60
2099.00,100.61
2098.00,100.60
2097.00,100.60
2096.00,100.59
2095.00,100.59
2094.00,100.60
2093.00,100.61
2092.00,100.61
2091.00,100.60
2090.00,100.58
2089.00,100.57
2088.00,100.58
2087.00,100.58
2086.00,100.58
2085.00,100.59
2084.00,100.60
2083.00,100.62
2082.00,100.63
2081.00,100.63
2080.00,100.62
2079.00,100.61
2078.00,100.60
2077.00,100.59
2076.00,100.59
2075.00,100.59
2074.00,100.60
2073.00,100.61
2072.00,100.61
2071.00,100.62
2070.00,100.61
2069.00,100.60
2068.00,100.59
2067.00,100.60
2066.00,100.62
2065.00,100.64
2064.00,100.64
2063.00,100.62
2062.00,100.60
2061.00,100.58
2060.00,100.58
2059.00,100.59
2058.00,100.61
2057.00,100.62
2056.00,100.63
2055.00,100.63
2054.00,100.63
2053.00,100.63
2052.00,100.63
2051.00,100.62
2050.00,100.60
2049.00,100.59
2048.00,100.59
2047.00,100.60
2046.00,100.61
2045.00,100.62
2044.00,100.62
2043.00,100.62
2042.00,100.63
2041.00,100.65
2040.00,100.65
2039.00,100.65
2038.00,100.65
2037.00,100.64
2036.00,100.62
2035.00,100.61
2034.00,100.59
2033.00,100.59
2032.00,100.60
2031.00,100.61
2030.00,100.62
2029.00,100.62
2028.00,100.60
2027.00,100.59
2026.00,100.59
2025.00,100.60
2024.00,100.63
2023.00,100.64
2022.00,100.64
2021.00,100.61
2020.00,100.59
2019.00,100.58
2018.00,100.59
2017.00,100.60
2016.00,100.60
2015.00,100.60
2014.00,100.61
2013.00,100.63
2012.00,100.63
2011.00,100.63
2010.00,100.60
2009.00,100.58
2008.00,100.56
2007.00,100.57
2006.00,100.57
2005.00,100.57
2004.00,100.57
2003.00,100.57
2002.00,100.57
2001.00,100.58
2000.00,100.59
1999.00,100.60
1998.00,100.60
1997.00,100.59
1996.00,100.59
1995.00,100.59
1994.00,100.60
1993.00,100.61
1992.00,100.61
1991.00,100.61
1990.00,100.61
1989.00,100.61
1988.00,100.60
1987.00,100.59
1986.00,100.60
1985.00,100.60
1984.00,100.61
1983.00,100.61
1982.00,100.62
1981.00,100.62
1980.00,100.62
1979.00,100.62
1978.00,100.62
1977.00,100.62
1976.00,100.61
1975.00,100.59
1974.00,100.58
1973.00,100.58
1972.00,100.59
1971.00,100.60
1970.00,100.61
1969.00,100.60
1968.00,100.59
1967.00,100.57
1966.00,100.57
1965.00,100.59
1964.00,100.61
1963.00,100.62
1962.00,100.61
1961.00,100.60
1960.00,100.58
1959.00,100.58
1958.00,100.58
1957.00,100.59
1956.00,100.60
1955.00,100.60
1954.00,100.60
1953.00,100.60
1952.00,100.59
1951.00,100.58
1950.00,100.57
1949.00,100.57
1948.00,100.57
1947.00,100.58
1946.00,100.59
1945.00,100.61
1944.00,100.61
1943.00,100.61
1942.00,100.60
1941.00,100.59
1940.00,100.59
1939.00,100.59
1938.00,100.60
1937.00,100.59
1936.00,100.59
1935.00,100.59
1934.00,100.60
1933.00,100.61
1932.00,100.61
1931.00,100.61
1930.00,100.61
1929.00,100.60
1928.00,100.59
1927.00,100.58
1926.00,100.57
1925.00,100.56
1924.00,100.56
1923.00,100.57
1922.00,100.58
1921.00,100.60
1920.00,100.61
1919.00,100.62
1918.00,100.62
1917.00,100.62
1916.00,100.62
1915.00,100.62
1914.00,100.62
1913.00,100.61
1912.00,100.61
1911.00,100.61
1910.00,100.61
1909.00,100.62
1908.00,100.61
1907.00,100.61
1906.00,100.60
1905.00,100.60
1904.00,100.60
1903.00,100.60
1902.00,100.60
1901.00,100.61
1900.00,100.61
1899.00,100.61
1898.00,100.61
1897.00,100.61
1896.00,100.62
1895.00,100.62
1894.00,100.62
1893.00,100.62
1892.00,100.61
1891.00,100.61
1890.00,100.61
1889.00,100.61
1888.00,100.61
1887.00,100.62
1886.00,100.62
1885.00,100.61
1884.00,100.60
1883.00,100.60
1882.00,100.60
1881.00,100.61
1880.00,100.60
1879.00,100.60
1878.00,100.59
1877.00,100.59
1876.00,100.59
1875.00,100.59
1874.00,100.60
1873.00,100.60
1872.00,100.61
1871.00,100.61
1870.00,100.61
1869.00,100.61
1868.00,100.61
1867.00,100.61
1866.00,100.60
1865.00,100.60
1864.00,100.60
1863.00,100.60
1862.00,100.60
1861.00,100.59
1860.00,100.59
1859.00,100.58
1858.00,100.58
1857.00,100.59
1856.00,100.59
1855.00,100.59
1854.00,100.60
1853.00,100.60
1852.00,100.60
1851.00,100.60
1850.00,100.60
1849.00,100.60
1848.00,100.60
1847.00,100.60
1846.00,100.60
1845.00,100.60
1844.00,100.61
1843.00,100.61
1842.00,100.61
1841.00,100.61
1840.00,100.61
1839.00,100.61
1838.00,100.61
1837.00,100.61
1836.00,100.61
1835.00,100.61
1834.00,100.61
1833.00,100.60
1832.00,100.59
1831.00,100.59
1830.00,100.59
1829.00,100.60
1828.00,100.60
1827.00,100.61
1826.00,100.61
1825.00,100.61
1824.00,100.61
1823.00,100.60
1822.00,100.60
1821.00,100.61
1820.00,100.61
1819.00,100.61
1818.00,100.61
1817.00,100.61
1816.00,100.61
1815.00,100.60
1814.00,100.60
1813.00,100.61
1812.00,100.61
1811.00,100.61
1810.00,100.61
1809.00,100.61
1808.00,100.60
1807.00,100.60
1806.00,100.60
1805.00,100.61
1804.00,100.61
1803.00,100.62
1802.00,100.61
1801.00,100.61
1800.00,100.61
1799.00,100.61
1798.00,100.61
1797.00,100.62
1796.00,100.62
1795.00,100.61
1794.00,100.61
1793.00,100.61
1792.00,100.61
1791.00,100.62
1790.00,100.62
1789.00,100.62
1788.00,100.62
1787.00,100.62
1786.00,100.61
1785.00,100.61
1784.00,100.60
1783.00,100.60
1782.00,100.60
1781.00,100.60
1780.00,100.60
1779.00,100.59
1778.00,100.59
1777.00,100.59
1776.00,100.60
1775.00,100.60
1774.00,100.60
1773.00,100.61
1772.00,100.61
1771.00,100.61
1770.00,100.61
1769.00,100.61
1768.00,100.61
1767.00,100.61
1766.00,100.62
1765.00,100.62
1764.00,100.62
1763.00,100.62
1762.00,100.61
1761.00,100.61
1760.00,100.62
1759.00,100.62
1758.00,100.62
1757.00,100.62
1756.00,100.62
1755.00,100.63
1754.00,100.63
1753.00,100.63
1752.00,100.63
1751.00,100.62
1750.00,100.62
1749.00,100.62
1748.00,100.63
1747.00,100.64
1746.00,100.64
1745.00,100.64
1744.00,100.65
1743.00,100.65
1742.00,100.65
1741.00,100.65
1740.00,100.65
1739.00,100.64
1738.00,100.64
1737.00,100.64
1736.00,100.64
1735.00,100.64
1734.00,100.64
1733.00,100.65
1732.00,100.65
1731.00,100.65
1730.00,100.65
1729.00,100.65
1728.00,100.65
1727.00,100.65
1726.00,100.64
1725.00,100.64
1724.00,100.64
1723.00,100.64
1722.00,100.64
1721.00,100.64
1720.00,100.64
1719.00,100.64
1718.00,100.64
1717.00,100.63
1716.00,100.64
1715.00,100.64
1714.00,100.63
1713.00,100.63
1712.00,100.63
1711.00,100.63
1710.00,100.63
1709.00,100.63
1708.00,100.63
1707.00,100.63
1706.00,100.63
1705.00,100.63
1704.00,100.63
1703.00,100.64
1702.00,100.64
1701.00,100.64
1700.00,100.63
1699.00,100.63
1698.00,100.62
1697.00,100.62
1696.00,100.62
1695.00,100.62
1694.00,100.62
1693.00,100.62
1692.00,100.62
1691.00,100.62
1690.00,100.63
1689.00,100.63
1688.00,100.64
1687.00,100.65
1686.00,100.65
1685.00,100.65
1684.00,100.64
1683.00,100.64
1682.00,100.64
1681.00,100.63
1680.00,100.63
1679.00,100.63
1678.00,100.63
1677.00,100.63
1676.00,100.63
1675.00,100.63
1674.00,100.63
1673.00,100.63
1672.00,100.63
1671.00,100.62
1670.00,100.61
1669.00,100.62
1668.00,100.63
1667.00,100.63
1666.00,100.64
1665.00,100.64
1664.00,100.63
1663.00,100.63
1662.00,100.63
1661.00,100.63
1660.00,100.64
1659.00,100.64
1658.00,100.64
1657.00,100.63
1656.00,100.63
1655.00,100.63
1654.00,100.62
1653.00,100.62
1652.00,100.64
1651.00,100.64
1650.00,100.65
1649.00,100.65
1648.00,100.64
1647.00,100.63
1646.00,100.63
1645.00,100.63
1644.00,100.63
1643.00,100.63
1642.00,100.63
1641.00,100.63
1640.00,100.63
1639.00,100.63
1638.00,100.63
1637.00,100.63
1636.00,100.63
1635.00,100.64
1634.00,100.65
1633.00,100.65
1632.00,100.66
1631.00,100.66
1630.00,100.65
1629.00,100.63
1628.00,100.63
1627.00,100.63
1626.00,100.63
1625.00,100.64
1624.00,100.65
1623.00,100.64
1622.00,100.64
1621.00,100.63
1620.00,100.63
1619.00,100.64
1618.00,100.65
1617.00,100.65
1616.00,100.65
1615.00,100.64
1614.00,100.63
1613.00,100.63
1612.00,100.63
1611.00,100.64
1610.00,100.64
1609.00,100.64
1608.00,100.63
1607.00,100.63
1606.00,100.63
1605.00,100.63
1604.00,100.63
1603.00,100.63
1602.00,100.64
1601.00,100.64
1600.00,100.64
1599.00,100.63
1598.00,100.63
1597.00,100.63
1596.00,100.63
1595.00,100.63
1594.00,100.63
1593.00,100.63
1592.00,100.63
1591.00,100.63
1590.00,100.63
1589.00,100.64
1588.00,100.64
1587.00,100.64
1586.00,100.64
1585.00,100.64
1584.00,100.63
1583.00,100.63
1582.00,100.63
1581.00,100.63
1580.00,100.63
1579.00,100.64
1578.00,100.64
1577.00,100.63
1576.00,100.63
1575.00,100.63
1574.00,100.63
1573.00,100.63
1572.00,100.64
1571.00,100.64
1570.00,100.64
1569.00,100.64
1568.00,100.64
1567.00,100.64
1566.00,100.64
1565.00,100.65
1564.00,100.65
1563.00,100.65
1562.00,100.65
1561.00,100.65
1560.00,100.64
1559.00,100.64
1558.00,100.64
1557.00,100.65
1556.00,100.65
1555.00,100.65
1554.00,100.65
1553.00,100.65
1552.00,100.65
1551.00,100.64
1550.00,100.64
1549.00,100.64
1548.00,100.64
1547.00,100.64
1546.00,100.64
1545.00,100.64
1544.00,100.64
1543.00,100.65
1542.00,100.65
1541.00,100.65
1540.00,100.64
1539.00,100.64
1538.00,100.64
1537.00,100.64
1536.00,100.64
1535.00,100.64
1534.00,100.64
1533.00,100.64
1532.00,100.64
1531.00,100.64
1530.00,100.64
1529.00,100.64
1528.00,100.64
1527.00,100.64
1526.00,100.64
1525.00,100.64
1524.00,100.64
1523.00,100.64
1522.00,100.64
1521.00,100.64
1520.00,100.64
1519.00,100.64
1518.00,100.64
1517.00,100.64
1516.00,100.64
1515.00,100.64
1514.00,100.65
1513.00,100.65
1512.00,100.66
1511.00,100.66
1510.00,100.66
1509.00,100.66
1508.00,100.66
1507.00,100.66
1506.00,100.66
1505.00,100.66
1504.00,100.66
1503.00,100.65
1502.00,100.65
1501.00,100.65
1500.00,100.65
1499.00,100.66
1498.00,100.67
1497.00,100.67
1496.00,100.66
1495.00,100.65
1494.00,100.63
1493.00,100.62
1492.00,100.62
1491.00,100.62
1490.00,100.62
1489.00,100.63
1488.00,100.63
1487.00,100.63
1486.00,100.63
1485.00,100.63
1484.00,100.63
1483.00,100.64
1482.00,100.64
1481.00,100.64
1480.00,100.65
1479.00,100.65
1478.00,100.65
1477.00,100.64
1476.00,100.64
1475.00,100.65
1474.00,100.65
1473.00,100.65
1472.00,100.65
1471.00,100.65
1470.00,100.65
1469.00,100.65
1468.00,100.65
1467.00,100.65
1466.00,100.65
1465.00,100.65
1464.00,100.65
1463.00,100.65
1462.00,100.65
1461.00,100.66
1460.00,100.66
1459.00,100.67
1458.00,100.67
1457.00,100.67
1456.00,100.66
1455.00,100.66
1454.00,100.66
1453.00,100.66
1452.00,100.66
1451.00,100.66
1450.00,100.66
1449.00,100.66
1448.00,100.66
1447.00,100.66
1446.00,100.66
1445.00,100.66
1444.00,100.66
1443.00,100.66
1442.00,100.66
1441.00,100.66
1440.00,100.66
1439.00,100.67
1438.00,100.68
1437.00,100.67
1436.00,100.66
1435.00,100.65
1434.00,100.65
1433.00,100.65
1432.00,100.65
1431.00,100.65
1430.00,100.65
1429.00,100.65
1428.00,100.65
1427.00,100.65
1426.00,100.65
1425.00,100.65
1424.00,100.65
1423.00,100.65
1422.00,100.65
1421.00,100.66
1420.00,100.66
1419.00,100.66
1418.00,100.66
1417.00,100.65
1416.00,100.65
1415.00,100.65
1414.00,100.66
1413.00,100.66
1412.00,100.66
1411.00,100.66
1410.00,100.66
1409.00,100.67
1408.00,100.67
1407.00,100.68
1406.00,100.68
1405.00,100.68
1404.00,100.68
1403.00,100.68
1402.00,100.68
1401.00,100.67
1400.00,100.67
1399.00,100.67
1398.00,100.67
1397.00,100.66
1396.00,100.66
1395.00,100.67
1394.00,100.67
1393.00,100.67
1392.00,100.67
1391.00,100.67
1390.00,100.67
1389.00,100.66
1388.00,100.66
1387.00,100.66
1386.00,100.66
1385.00,100.66
1384.00,100.66
1383.00,100.67
1382.00,100.67
1381.00,100.67
1380.00,100.66
1379.00,100.66
1378.00,100.66
1377.00,100.66
1376.00,100.66
1375.00,100.66
1374.00,100.67
1373.00,100.67
1372.00,100.67
1371.00,100.67
1370.00,100.67
1369.00,100.67
1368.00,100.67
1367.00,100.67
1366.00,100.67
1365.00,100.67
1364.00,100.67
1363.00,100.67
1362.00,100.66
1361.00,100.66
1360.00,100.66
1359.00,100.66
1358.00,100.66
1357.00,100.66
1356.00,100.66
1355.00,100.66
1354.00,100.66
1353.00,100.66
1352.00,100.66
1351.00,100.66
1350.00,100.67
1349.00,100.67
1348.00,100.67
1347.00,100.67
1346.00,100.66
1345.00,100.66
1344.00,100.66
1343.00,100.66
1342.00,100.65
1341.00,100.65
1340.00,100.64
1339.00,100.64
1338.00,100.64
1337.00,100.65
1336.00,100.65
1335.00,100.65
1334.00,100.65
1333.00,100.65
1332.00,100.65
1331.00,100.64
1330.00,100.64
1329.00,100.64
1328.00,100.64
1327.00,100.64
1326.00,100.64
1325.00,100.64
1324.00,100.64
1323.00,100.64
1322.00,100.64
1321.00,100.64
1320.00,100.64
1319.00,100.65
1318.00,100.65
1317.00,100.65
1316.00,100.65
1315.00,100.64
1314.00,100.64
1313.00,100.64
1312.00,100.64
1311.00,100.64
1310.00,100.64
1309.00,100.64
1308.00,100.64
1307.00,100.64
1306.00,100.64
1305.00,100.65
1304.00,100.65
1303.00,100.66
1302.00,100.66
1301.00,100.66
1300.00,100.65
1299.00,100.65
1298.00,100.65
1297.00,100.64
1296.00,100.64
1295.00,100.64
1294.00,100.64
1293.00,100.65
1292.00,100.66
1291.00,100.66
1290.00,100.67
1289.00,100.67
1288.00,100.67
1287.00,100.67
1286.00,100.66
1285.00,100.66
1284.00,100.66
1283.00,100.66
1282.00,100.66
1281.00,100.67
1280.00,100.67
1279.00,100.68
1278.00,100.69
1277.00,100.69
1276.00,100.69
1275.00,100.69
1274.00,100.68
1273.00,100.67
1272.00,100.67
1271.00,100.67
1270.00,100.67
1269.00,100.67
1268.00,100.67
1267.00,100.67
1266.00,100.67
1265.00,100.67
1264.00,100.67
1263.00,100.67
1262.00,100.67
1261.00,100.67
1260.00,100.67
1259.00,100.67
1258.00,100.66
1257.00,100.66
1256.00,100.66
1255.00,100.66
1254.00,100.67
1253.00,100.67
1252.00,100.67
1251.00,100.68
1250.00,100.68
1249.00,100.67
1248.00,100.67
1247.00,100.66
1246.00,100.66
1245.00,100.66
1244.00,100.66
1243.00,100.66
1242.00,100.66
1241.00,100.66
1240.00,100.66
1239.00,100.65
1238.00,100.65
1237.00,100.65
1236.00,100.65
1235.00,100.65
1234.00,100.66
1233.00,100.66
1232.00,100.66
1231.00,100.66
1230.00,100.66
1229.00,100.66
1228.00,100.66
1227.00,100.66
1226.00,100.66
1225.00,100.66
1224.00,100.66
1223.00,100.67
1222.00,100.67
1221.00,100.67
1220.00,100.67
1219.00,100.67
1218.00,100.67
1217.00,100.67
1216.00,100.67
1215.00,100.67
1214.00,100.67
1213.00,100.67
1212.00,100.67
1211.00,100.68
1210.00,100.68
1209.00,100.68
1208.00,100.68
1207.00,100.67
1206.00,100.67
1205.00,100.67
1204.00,100.67
1203.00,100.68
1202.00,100.68
1201.00,100.68
1200.00,100.68
1199.00,100.68
1198.00,100.68
1197.00,100.68
1196.00,100.68
1195.00,100.68
1194.00,100.68
1193.00,100.67
1192.00,100.67
1191.00,100.68
1190.00,100.69
1189.00,100.70
1188.00,100.70
1187.00,100.70
1186.00,100.70
1185.00,100.70
1184.00,100.70
1183.00,100.69
1182.00,100.69
1181.00,100.69
1180.00,100.68
1179.00,100.68
1178.00,100.68
1177.00,100.68
1176.00,100.69
1175.00,100.70
1174.00,100.71
1173.00,100.71
1172.00,100.72
1171.00,100.72
1170.00,100.71
1169.00,100.71
1168.00,100.71
1167.00,100.71
1166.00,100.71
1165.00,100.71
1164.00,100.71
1163.00,100.71
1162.00,100.71
1161.00,100.70
1160.00,100.70
1159.00,100.70
1158.00,100.70
1157.00,100.70
1156.00,100.70
1155.00,100.70
1154.00,100.71
1153.00,100.71
1152.00,100.71
1151.00,100.71
1150.00,100.72
1149.00,100.72
1148.00,100.71
1147.00,100.71
1146.00,100.71
1145.00,100.70
1144.00,100.71
1143.00,100.71
1142.00,100.72
1141.00,100.72
1140.00,100.72
1139.00,100.72
1138.00,100.73
1137.00,100.73
1136.00,100.74
1135.00,100.74
1134.00,100.74
1133.00,100.74
1132.00,100.75
1131.00,100.75
1130.00,100.75
1129.00,100.75
1128.00,100.75
1127.00,100.75
1126.00,100.74
1125.00,100.74
1124.00,100.74
1123.00,100.74
1122.00,100.75
1121.00,100.75
1120.00,100.74
1119.00,100.73
1118.00,100.73
1117.00,100.73
1116.00,100.73
1115.00,100.73
1114.00,100.73
1113.00,100.73
1112.00,100.73
1111.00,100.73
1110.00,100.73
1109.00,100.73
1108.00,100.73
1107.00,100.73
1106.00,100.73
1105.00,100.73
1104.00,100.73
1103.00,100.73
1102.00,100.72
1101.00,100.72
1100.00,100.72
1099.00,100.72
1098.00,100.72
1097.00,100.72
1096.00,100.71
1095.00,100.71
1094.00,100.71
1093.00,100.71
1092.00,100.71
1091.00,100.71
1090.00,100.71
1089.00,100.70
1088.00,100.70
1087.00,100.71
1086.00,100.71
1085.00,100.72
1084.00,100.72
1083.00,100.71
1082.00,100.71
1081.00,100.70
1080.00,100.70
1079.00,100.71
1078.00,100.71
1077.00,100.71
1076.00,100.71
1075.00,100.71
1074.00,100.71
1073.00,100.72
1072.00,100.72
1071.00,100.72
1070.00,100.72
1069.00,100.72
1068.00,100.72
1067.00,100.71
1066.00,100.71
1065.00,100.72
1064.00,100.72
1063.00,100.72
1062.00,100.72
1061.00,100.71
1060.00,100.70
1059.00,100.71
1058.00,100.72
1057.00,100.73
1056.00,100.74
1055.00,100.75
1054.00,100.75
1053.00,100.76
1052.00,100.76
1051.00,100.76
1050.00,100.75
1049.00,100.74
1048.00,100.73
1047.00,100.72
1046.00,100.71
1045.00,100.71
1044.00,100.72
1043.00,100.72
1042.00,100.72
1041.00,100.72
1040.00,100.72
1039.00,100.71
1038.00,100.72
1037.00,100.72
1036.00,100.73
1035.00,100.73
1034.00,100.73
1033.00,100.73
1032.00,100.72
1031.00,100.72
1030.00,100.73
1029.00,100.73
1028.00,100.74
1027.00,100.75
1026.00,100.76
1025.00,100.77
1024.00,100.78
1023.00,100.80
1022.00,100.81
1021.00,100.81
1020.00,100.82
1019.00,100.83
1018.00,100.85
1017.00,100.86
1016.00,100.86
1015.00,100.86
1014.00,100.84
1013.00,100.81
1012.00,100.78
1011.00,100.76
1010.00,100.75
1009.00,100.74
1008.00,100.73
1007.00,100.72
1006.00,100.71
1005.00,100.71
1004.00,100.70
1003.00,100.70
1002.00,100.71
1001.00,100.71
1000.00,100.70
999.00,100.70
998.00,100.69
997.00,100.69
996.00,100.70
995.00,100.70
994.00,100.70
993.00,100.69
992.00,100.69
991.00,100.69
990.00,100.69
989.00,100.69
988.00,100.69
987.00,100.68
986.00,100.68
985.00,100.68
984.00,100.68
983.00,100.68
982.00,100.68
981.00,100.69
980.00,100.68
979.00,100.68
978.00,100.67
977.00,100.67
976.00,100.68
975.00,100.69
974.00,100.69
973.00,100.68
972.00,100.68
971.00,100.68
970.00,100.68
969.00,100.69
968.00,100.69
967.00,100.70
966.00,100.70
965.00,100.69
964.00,100.69
963.00,100.69
962.00,100.69
961.00,100.69
960.00,100.69
959.00,100.69
958.00,100.70
957.00,100.70
956.00,100.70
955.00,100.70
954.00,100.69
953.00,100.69
952.00,100.68
951.00,100.69
950.00,100.70
949.00,100.70
948.00,100.71
947.00,100.70
946.00,100.69
945.00,100.69
944.00,100.68
943.00,100.68
942.00,100.69
941.00,100.70
940.00,100.71
939.00,100.71
938.00,100.71
937.00,100.71
936.00,100.70
935.00,100.69
934.00,100.69
933.00,100.69
932.00,100.69
931.00,100.70
930.00,100.70
929.00,100.71
928.00,100.71
927.00,100.71
926.00,100.71
925.00,100.71
924.00,100.71
923.00,100.72
922.00,100.73
921.00,100.73
920.00,100.73
919.00,100.73
918.00,100.73
917.00,100.73
916.00,100.73
915.00,100.72
914.00,100.72
913.00,100.72
912.00,100.73
911.00,100.73
910.00,100.72
909.00,100.71
908.00,100.71
907.00,100.71
906.00,100.71
905.00,100.71
904.00,100.71
903.00,100.71
902.00,100.72
901.00,100.73
900.00,100.74
899.00,100.74
898.00,100.74
897.00,100.75
896.00,100.75
895.00,100.74
894.00,100.73
893.00,100.72
892.00,100.72
891.00,100.72
890.00,100.71
889.00,100.70
888.00,100.69
887.00,100.69
886.00,100.70
885.00,100.71
884.00,100.72
883.00,100.73
882.00,100.73
881.00,100.73
880.00,100.73
879.00,100.72
878.00,100.71
877.00,100.70
876.00,100.70
875.00,100.70
874.00,100.72
873.00,100.74
872.00,100.75
871.00,100.74
870.00,100.74
869.00,100.72
868.00,100.71
867.00,100.70
866.00,100.70
865.00,100.70
864.00,100.71
863.00,100.71
862.00,100.71
861.00,100.71
860.00,100.71
859.00,100.71
858.00,100.71
857.00,100.72
856.00,100.72
855.00,100.72
854.00,100.72
853.00,100.72
852.00,100.72
851.00,100.73
850.00,100.73
849.00,100.72
848.00,100.72
847.00,100.72
846.00,100.72
845.00,100.73
844.00,100.75
843.00,100.77
842.00,100.78
841.00,100.77
840.00,100.76
839.00,100.74
838.00,100.73
837.00,100.73
836.00,100.74
835.00,100.73
834.00,100.72
833.00,100.71
832.00,100.69
831.00,100.69
830.00,100.70
829.00,100.71
828.00,100.71
827.00,100.72
826.00,100.72
825.00,100.73
824.00,100.72
823.00,100.71
822.00,100.71
821.00,100.72
820.00,100.73
819.00,100.73
818.00,100.72
817.00,100.72
816.00,100.73
815.00,100.74
814.00,100.74
813.00,100.73
812.00,100.72
811.00,100.72
810.00,100.73
809.00,100.74
808.00,100.76
807.00,100.76
806.00,100.77
805.00,100.76
804.00,100.75
803.00,100.74
802.00,100.73
801.00,100.73
800.00,100.74
799.00,100.74
798.00,100.76
797.00,100.76
796.00,100.76
795.00,100.75
794.00,100.73
793.00,100.72
792.00,100.73
791.00,100.75
790.00,100.75
789.00,100.75
788.00,100.74
787.00,100.73
786.00,100.73
785.00,100.74
784.00,100.77
783.00,100.79
782.00,100.80
781.00,100.80
780.00,100.80
779.00,100.79
778.00,100.78
777.00,100.76
776.00,100.75
775.00,100.75
774.00,100.74
773.00,100.74
772.00,100.73
771.00,100.73
770.00,100.73
769.00,100.72
768.00,100.72
767.00,100.73
766.00,100.74
765.00,100.75
764.00,100.76
763.00,100.75
762.00,100.75
761.00,100.75
760.00,100.76
759.00,100.76
758.00,100.76
757.00,100.76
756.00,100.75
755.00,100.74
754.00,100.74
753.00,100.75
752.00,100.75
751.00,100.75
750.00,100.75
749.00,100.76
748.00,100.76
747.00,100.76
746.00,100.76
745.00,100.75
744.00,100.75
743.00,100.75
742.00,100.76
741.00,100.77
740.00,100.78
739.00,100.79
738.00,100.78
737.00,100.78
736.00,100.77
735.00,100.76
734.00,100.75
733.00,100.74
732.00,100.74
731.00,100.76
730.00,100.79
729.00,100.80
728.00,100.80
727.00,100.78
726.00,100.77
725.00,100.75
724.00,100.74
723.00,100.74
722.00,100.73
721.00,100.73
720.00,100.74
719.00,100.75
718.00,100.77
717.00,100.78
716.00,100.79
715.00,100.78
714.00,100.77
713.00,100.77
712.00,100.76
711.00,100.77
710.00,100.77
709.00,100.77
708.00,100.78
707.00,100.79
706.00,100.79
705.00,100.78
704.00,100.77
703.00,100.75
702.00,100.73
701.00,100.73
700.00,100.74
699.00,100.75
698.00,100.76
697.00,100.77
696.00,100.78
695.00,100.79
694.00,100.79
693.00,100.78
692.00,100.78
691.00,100.79
690.00,100.80
689.00,100.80
688.00,100.78
687.00,100.76
686.00,100.75
685.00,100.76
684.00,100.78
683.00,100.81
682.00,100.83
681.00,100.85
680.00,100.86
679.00,100.85
678.00,100.84
677.00,100.81
676.00,100.78
675.00,100.78
674.00,100.79
673.00,100.80
672.00,100.81
671.00,100.84
670.00,100.89
669.00,100.95
668.00,100.96
667.00,100.88
666.00,100.80
665.00,100.78
664.00,100.77
663.00,100.77
662.00,100.79
661.00,100.80
660.00,100.81
659.00,100.82
658.00,100.83
657.00,100.85
656.00,100.86
655.00,100.86
654.00,100.83
653.00,100.79
652.00,100.75
651.00,100.74
650.00,100.76
