Created as New Dataset,Sample 303 By iruser Date Friday, March 13 2026
cm-1,%T
4200.00,100.58
4199.00,100.58
4198.00,100.57
4197.00,100.57
4196.00,100.56
4195.00,100.56
4194.00,100.57
4193.00,100.57
4192.00,100.58
4191.00,100.59
4190.00,100.59
4189.00,100.59
4188.00,100.58
4187.00,100.58
4186.00,100.58
4185.00,100.58
4184.00,100.58
4183.00,100.58
4182.00,100.58
4181.00,100.58
4180.00,100.58
4179.00,100.58
4178.00,100.58
4177.00,100.58
4176.00,100.59
4175.00,100.59
4174.00,100.59
4173.00,100.58
4172.00,100.58
4171.00,100.58
4170.00,100.59
4169.00,100.59
4168.00,100.59
4167.00,100.59
4166.00,100.58
4165.00,100.58
4164.00,100.58
4163.00,100.58
4162.00,100.58
4161.00,100.58
4160.00,100.58
4159.00,100.58
4158.00,100.58
4157.00,100.58
4156.00,100.58
4155.00,100.58
4154.00,100.58
4153.00,100.58
4152.00,100.57
4151.00,100.58
4150.00,100.58
4149.00,100.57
4148.00,100.57
4147.00,100.57
4146.00,100.57
4145.00,100.57
4144.00,100.57
4143.00,100.57
4142.00,100.56
4141.00,100.55
4140.00,100.54
4139.00,100.54
4138.00,100.54
4137.00,100.55
4136.00,100.55
4135.00,100.56
4134.00,100.56
4133.00,100.57
4132.00,100.57
4131.00,100.58
4130.00,100.58
4129.00,100.58
4128.00,100.57
4127.00,100.57
4126.00,100.56
4125.00,100.56
4124.00,100.56
4123.00,100.56
4122.00,100.56
4121.00,100.57
4120.00,100.57
4119.00,100.56
4118.00,100.56
4117.00,100.56
4116.00,100.56
4115.00,100.56
4114.00,100.56
4113.00,100.55
4112.00,100.55
4111.00,100.55
4110.00,100.55
4109.00,100.55
4108.00,100.55
4107.00,100.55
4106.00,100.55
4105.00,100.55
4104.00,100.55
4103.00,100.55
4102.00,100.55
4101.00,100.55
4100.00,100.55
4099.00,100.55
4098.00,100.54
4097.00,100.54
4096.00,100.55
4095.00,100.55
4094.00,100.56
4093.00,100.56
4092.00,100.56
4091.00,100.56
4090.00,100.55
4089.00,100.55
4088.00,100.54
4087.00,100.54
4086.00,100.54
4085.00,100.55
4084.00,100.55
4083.00,100.55
4082.00,100.56
4081.00,100.56
4080.00,100.56
4079.00,100.56
4078.00,100.55
4077.00,100.55
4076.00,100.55
4075.00,100.55
4074.00,100.55
4073.00,100.55
4072.00,100.55
4071.00,100.55
4070.00,100.56
4069.00,100.55
4068.00,100.55
4067.00,100.54
4066.00,100.54
4065.00,100.54
4064.00,100.54
4063.00,100.54
4062.00,100.54
4061.00,100.54
4060.00,100.54
4059.00,100.55
4058.00,100.55
4057.00,100.55
4056.00,100.55
4055.00,100.55
4054.00,100.55
4053.00,100.54
4052.00,100.54
4051.00,100.54
4050.00,100.53
4049.00,100.53
4048.00,100.54
4047.00,100.54
4046.00,100.54
4045.00,100.54
4044.00,100.54
4043.00,100.54
4042.00,100.54
4041.00,100.54
4040.00,100.54
4039.00,100.54
4038.00,100.54
4037.00,100.54
4036.00,100.54
4035.00,100.54
4034.00,100.53
4033.00,100.53
4032.00,100.53
4031.00,100.53
4030.00,100.53
4029.00,100.53
4028.00,100.53
4027.00,100.53
4026.00,100.53
4025.00,100.53
4024.00,100.53
4023.00,100.52
4022.00,100.52
4021.00,100.53
4020.00,100.53
4019.00,100.53
4018.00,100.53
4017.00,100.53
4016.00,100.53
4015.00,100.53
4014.00,100.53
4013.00,100.53
4012.00,100.53
4011.00,100.54
4010.00,100.54
4009.00,100.54
4008.00,100.53
4007.00,100.53
4006.00,100.53
4005.00,100.53
4004.00,100.53
4003.00,100.53
4002.00,100.53
4001.00,100.53
4000.00,100.53
3999.00,100.53
3998.00,100.53
3997.00,100.53
3996.00,100.53
3995.00,100.53
3994.00,100.53
3993.00,100.53
3992.00,100.52
3991.00,100.52
3990.00,100.52
3989.00,100.53
3988.00,100.53
3987.00,100.53
3986.00,100.53
3985.00,100.54
3984.00,100.54
3983.00,100.54
3982.00,100.53
3981.00,100.53
3980.00,100.53
3979.00,100.53
3978.00,100.53
3977.00,100.53
3976.00,100.53
3975.00,100.53
3974.00,100.54
3973.00,100.54
3972.00,100.53
3971.00,100.53
3970.00,100.53
3969.00,100.52
3968.00,100.52
3967.00,100.52
3966.00,100.52
3965.00,100.52
3964.00,100.53
3963.00,100.53
3962.00,100.53
3961.00,100.52
3960.00,100.52
3959.00,100.52
3958.00,100.52
3957.00,100.52
3956.00,100.52
3955.00,100.52
3954.00,100.52
3953.00,100.52
3952.00,100.52
3951.00,100.52
3950.00,100.52
3949.00,100.52
3948.00,100.52
3947.00,100.52
3946.00,100.52
3945.00,100.53
3944.00,100.53
3943.00,100.54
3942.00,100.54
3941.00,100.53
3940.00,100.53
3939.00,100.52
3938.00,100.52
3937.00,100.52
3936.00,100.52
3935.00,100.52
3934.00,100.52
3933.00,100.52
3932.00,100.52
3931.00,100.52
3930.00,100.52
3929.00,100.52
3928.00,100.52
3927.00,100.52
3926.00,100.52
3925.00,100.53
3924.00,100.53
3923.00,100.53
3922.00,100.53
3921.00,100.53
3920.00,100.53
3919.00,100.52
3918.00,100.52
3917.00,100.53
3916.00,100.53
3915.00,100.53
3914.00,100.52
3913.00,100.52
3912.00,100.51
3911.00,100.51
3910.00,100.51
3909.00,100.52
3908.00,100.52
3907.00,100.53
3906.00,100.53
3905.00,100.52
3904.00,100.52
3903.00,100.52
3902.00,100.52
3901.00,100.52
3900.00,100.52
3899.00,100.52
3898.00,100.52
3897.00,100.51
3896.00,100.51
3895.00,100.51
3894.00,100.52
3893.00,100.52
3892.00,100.53
3891.00,100.54
3890.00,100.54
3889.00,100.54
3888.00,100.53
3887.00,100.53
3886.00,100.53
3885.00,100.53
3884.00,100.53
3883.00,100.53
3882.00,100.53
3881.00,100.54
3880.00,100.54
3879.00,100.54
3878.00,100.53
3877.00,100.53
3876.00,100.53
3875.00,100.53
3874.00,100.52
3873.00,100.51
3872.00,100.51
3871.00,100.51
3870.00,100.51
3869.00,100.51
3868.00,100.51
3867.00,100.52
3866.00,100.53
3865.00,100.53
3864.00,100.53
3863.00,100.52
3862.00,100.52
3861.00,100.52
3860.00,100.52
3859.00,100.52
3858.00,100.52
3857.00,100.52
3856.00,100.52
3855.00,100.51
3854.00,100.52
3853.00,100.52
3852.00,100.51
3851.00,100.51
3850.00,100.51
3849.00,100.52
3848.00,100.52
3847.00,100.52
3846.00,100.51
3845.00,100.51
3844.00,100.51
3843.00,100.50
3842.00,100.50
3841.00,100.50
3840.00,100.50
3839.00,100.50
3838.00,100.51
3837.00,100.51
3836.00,100.52
3835.00,100.52
3834.00,100.52
3833.00,100.53
3832.00,100.53
3831.00,100.53
3830.00,100.52
3829.00,100.51
3828.00,100.51
3827.00,100.51
3826.00,100.50
3825.00,100.50
3824.00,100.50
3823.00,100.50
3822.00,100.50
3821.00,100.50
3820.00,100.50
3819.00,100.50
3818.00,100.50
3817.00,100.51
3816.00,100.52
3815.00,100.52
3814.00,100.51
3813.00,100.50
3812.00,100.51
3811.00,100.51
3810.00,100.51
3809.00,100.51
3808.00,100.51
3807.00,100.52
3806.00,100.52
3805.00,100.51
3804.00,100.52
3803.00,100.52
3802.00,100.52
3801.00,100.52
3800.00,100.51
3799.00,100.51
3798.00,100.52
3797.00,100.52
3796.00,100.52
3795.00,100.52
3794.00,100.52
3793.00,100.52
3792.00,100.52
3791.00,100.52
3790.00,100.51
3789.00,100.51
3788.00,100.52
3787.00,100.52
3786.00,100.53
3785.00,100.53
3784.00,100.53
3783.00,100.53
3782.00,100.53
3781.00,100.53
3780.00,100.53
3779.00,100.53
3778.00,100.53
3777.00,100.53
3776.00,100.53
3775.00,100.53
3774.00,100.53
3773.00,100.53
3772.00,100.52
3771.00,100.53
3770.00,100.53
3769.00,100.53
3768.00,100.53
3767.00,100.53
3766.00,100.52
3765.00,100.52
3764.00,100.52
3763.00,100.52
3762.00,100.52
3761.00,100.53
3760.00,100.52
3759.00,100.52
3758.00,100.52
3757.00,100.52
3756.00,100.52
3755.00,100.52
3754.00,100.52
3753.00,100.52
3752.00,100.51
3751.00,100.51
3750.00,100.52
3749.00,100.52
3748.00,100.52
3747.00,100.52
3746.00,100.52
3745.00,100.53
3744.00,100.53
3743.00,100.53
3742.00,100.52
3741.00,100.53
3740.00,100.53
3739.00,100.52
3738.00,100.52
3737.00,100.51
3736.00,100.51
3735.00,100.51
3734.00,100.52
3733.00,100.53
3732.00,100.54
3731.00,100.54
3730.00,100.54
3729.00,100.54
3728.00,100.54
3727.00,100.54
3726.00,100.54
3725.00,100.54
3724.00,100.53
3723.00,100.53
3722.00,100.53
3721.00,100.53
3720.00,100.53
3719.00,100.53
3718.00,100.53
3717.00,100.53
3716.00,100.53
3715.00,100.52
3714.00,100.53
3713.00,100.53
3712.00,100.53
3711.00,100.53
3710.00,100.53
3709.00,100.52
3708.00,100.52
3707.00,100.52
3706.00,100.51
3705.00,100.51
3704.00,100.52
3703.00,100.52
3702.00,100.52
3701.00,100.52
3700.00,100.52
3699.00,100.51
3698.00,100.51
3697.00,100.50
3696.00,100.50
3695.00,100.50
3694.00,100.50
3693.00,100.50
3692.00,100.50
3691.00,100.50
3690.00,100.50
3689.00,100.50
3688.00,100.50
3687.00,100.50
3686.00,100.50
3685.00,100.50
3684.00,100.50
3683.00,100.50
3682.00,100.50
3681.00,100.50
3680.00,100.50
3679.00,100.49
3678.00,100.47
3677.00,100.47
3676.00,100.48
3675.00,100.49
3674.00,100.50
3673.00,100.51
3672.00,100.51
3671.00,100.52
3670.00,100.51
3669.00,100.51
3668.00,100.51
3667.00,100.51
3666.00,100.51
3665.00,100.51
3664.00,100.51
3663.00,100.51
3662.00,100.52
3661.00,100.52
3660.00,100.52
3659.00,100.52
3658.00,100.52
3657.00,100.52
3656.00,100.52
3655.00,100.52
3654.00,100.52
3653.00,100.52
3652.00,100.53
3651.00,100.52
3650.00,100.52
3649.00,100.52
3648.00,100.53
3647.00,100.53
3646.00,100.53
3645.00,100.53
3644.00,100.53
3643.00,100.52
3642.00,100.52
3641.00,100.51
3640.00,100.51
3639.00,100.51
3638.00,100.51
3637.00,100.52
3636.00,100.52
3635.00,100.53
3634.00,100.53
3633.00,100.53
3632.00,100.53
3631.00,100.53
3630.00,100.54
3629.00,100.55
3628.00,100.55
3627.00,100.55
3626.00,100.55
3625.00,100.55
3624.00,100.55
3623.00,100.54
3622.00,100.54
3621.00,100.55
3620.00,100.55
3619.00,100.56
3618.00,100.56
3617.00,100.55
3616.00,100.55
3615.00,100.55
3614.00,100.55
3613.00,100.56
3612.00,100.56
3611.00,100.56
3610.00,100.56
3609.00,100.56
3608.00,100.56
3607.00,100.55
3606.00,100.54
3605.00,100.54
3604.00,100.53
3603.00,100.53
3602.00,100.53
3601.00,100.53
3600.00,100.53
3599.00,100.54
3598.00,100.55
3597.00,100.55
3596.00,100.55
3595.00,100.55
3594.00,100.55
3593.00,100.55
3592.00,100.55
3591.00,100.54
3590.00,100.54
3589.00,100.54
3588.00,100.55
3587.00,100.56
3586.00,100.57
3585.00,100.57
3584.00,100.56
3583.00,100.55
3582.00,100.55
3581.00,100.55
3580.00,100.55
3579.00,100.55
3578.00,100.55
3577.00,100.55
3576.00,100.54
3575.00,100.54
3574.00,100.54
3573.00,100.54
3572.00,100.55
3571.00,100.55
3570.00,100.55
3569.00,100.55
3568.00,100.56
3567.00,100.56
3566.00,100.56
3565.00,100.56
3564.00,100.55
3563.00,100.55
3562.00,100.54
3561.00,100.54
3560.00,100.54
3559.00,100.54
3558.00,100.55
3557.00,100.55
3556.00,100.55
3555.00,100.54
3554.00,100.54
3553.00,100.54
3552.00,100.54
3551.00,100.54
3550.00,100.54
3549.00,100.54
3548.00,100.54
3547.00,100.55
3546.00,100.56
3545.00,100.56
3544.00,100.56
3543.00,100.55
3542.00,100.55
3541.00,100.54
3540.00,100.54
3539.00,100.54
3538.00,100.54
3537.00,100.54
3536.00,100.54
3535.00,100.55
3534.00,100.55
3533.00,100.56
3532.00,100.56
3531.00,100.55
3530.00,100.55
3529.00,100.55
3528.00,100.55
3527.00,100.55
3526.00,100.55
3525.00,100.54
3524.00,100.54
3523.00,100.54
3522.00,100.54
3521.00,100.54
3520.00,100.55
3519.00,100.55
3518.00,100.55
3517.00,100.55
3516.00,100.55
3515.00,100.55
3514.00,100.54
3513.00,100.54
3512.00,100.54
3511.00,100.54
3510.00,100.54
3509.00,100.54
3508.00,100.54
3507.00,100.54
3506.00,100.54
3505.00,100.54
3504.00,100.54
3503.00,100.55
3502.00,100.55
3501.00,100.55
3500.00,100.55
3499.00,100.54
3498.00,100.54
3497.00,100.54
3496.00,100.55
3495.00,100.55
3494.00,100.55
3493.00,100.55
3492.00,100.55
3491.00,100.54
3490.00,100.54
3489.00,100.54
3488.00,100.53
3487.00,100.53
3486.00,100.53
3485.00,100.54
3484.00,100.54
3483.00,100.54
3482.00,100.54
3481.00,100.54
3480.00,100.54
3479.00,100.54
3478.00,100.55
3477.00,100.55
3476.00,100.55
3475.00,100.54
3474.00,100.54
3473.00,100.54
3472.00,100.54
3471.00,100.54
3470.00,100.54
3469.00,100.54
3468.00,100.54
3467.00,100.54
3466.00,100.54
3465.00,100.54
3464.00,100.55
3463.00,100.55
3462.00,100.55
3461.00,100.55
3460.00,100.54
3459.00,100.54
3458.00,100.54
3457.00,100.54
3456.00,100.54
3455.00,100.54
3454.00,100.54
3453.00,100.54
3452.00,100.53
3451.00,100.53
3450.00,100.53
3449.00,100.53
3448.00,100.53
3447.00,100.54
3446.00,100.54
3445.00,100.53
3444.00,100.54
3443.00,100.54
3442.00,100.54
3441.00,100.54
3440.00,100.55
3439.00,100.55
3438.00,100.55
3437.00,100.54
3436.00,100.54
3435.00,100.53
3434.00,100.53
3433.00,100.53
3432.00,100.53
3431.00,100.53
3430.00,100.54
3429.00,100.54
3428.00,100.54
3427.00,100.55
3426.00,100.55
3425.00,100.55
3424.00,100.54
3423.00,100.53
3422.00,100.53
3421.00,100.52
3420.00,100.52
3419.00,100.52
3418.00,100.53
3417.00,100.53
3416.00,100.53
3415.00,100.52
3414.00,100.52
3413.00,100.52
3412.00,100.53
3411.00,100.53
3410.00,100.53
3409.00,100.53
3408.00,100.54
3407.00,100.54
3406.00,100.54
3405.00,100.54
3404.00,100.54
3403.00,100.53
3402.00,100.53
3401.00,100.52
3400.00,100.52
3399.00,100.53
3398.00,100.53
3397.00,100.53
3396.00,100.53
3395.00,100.53
3394.00,100.53
3393.00,100.53
3392.00,100.53
3391.00,100.53
3390.00,100.53
3389.00,100.53
3388.00,100.53
3387.00,100.53
3386.00,100.53
3385.00,100.53
3384.00,100.53
3383.00,100.53
3382.00,100.53
3381.00,100.53
3380.00,100.53
3379.00,100.53
3378.00,100.54
3377.00,100.54
3376.00,100.53
3375.00,100.53
3374.00,100.53
3373.00,100.53
3372.00,100.53
3371.00,100.53
3370.00,100.53
3369.00,100.53
3368.00,100.53
3367.00,100.53
3366.00,100.54
3365.00,100.54
3364.00,100.54
3363.00,100.54
3362.00,100.53
3361.00,100.53
3360.00,100.53
3359.00,100.53
3358.00,100.53
3357.00,100.53
3356.00,100.53
3355.00,100.53
3354.00,100.53
3353.00,100.54
3352.00,100.54
3351.00,100.53
3350.00,100.53
3349.00,100.52
3348.00,100.53
3347.00,100.53
3346.00,100.53
3345.00,100.53
3344.00,100.53
3343.00,100.53
3342.00,100.53
3341.00,100.53
3340.00,100.53
3339.00,100.53
3338.00,100.53
3337.00,100.53
3336.00,100.53
3335.00,100.53
3334.00,100.53
3333.00,100.53
3332.00,100.53
3331.00,100.53
3330.00,100.53
3329.00,100.53
3328.00,100.53
3327.00,100.53
3326.00,100.53
3325.00,100.53
3324.00,100.52
3323.00,100.52
3322.00,100.52
3321.00,100.52
3320.00,100.52
3319.00,100.52
3318.00,100.52
3317.00,100.52
3316.00,100.52
3315.00,100.52
3314.00,100.52
3313.00,100.51
3312.00,100.51
3311.00,100.51
3310.00,100.51
3309.00,100.51
3308.00,100.51
3307.00,100.52
3306.00,100.52
3305.00,100.52
3304.00,100.52
3303.00,100.52
3302.00,100.52
3301.00,100.52
3300.00,100.53
3299.00,100.52
3298.00,100.52
3297.00,100.52
3296.00,100.52
3295.00,100.52
3294.00,100.52
3293.00,100.53
3292.00,100.53
3291.00,100.53
3290.00,100.53
3289.00,100.52
3288.00,100.52
3287.00,100.52
3286.00,100.52
3285.00,100.52
3284.00,100.52
3283.00,100.52
3282.00,100.52
3281.00,100.52
3280.00,100.52
3279.00,100.51
3278.00,100.51
3277.00,100.52
3276.00,100.52
3275.00,100.52
3274.00,100.52
3273.00,100.52
3272.00,100.52
3271.00,100.52
3270.00,100.51
3269.00,100.51
3268.00,100.52
3267.00,100.52
3266.00,100.52
3265.00,100.52
3264.00,100.52
3263.00,100.52
3262.00,100.51
3261.00,100.51
3260.00,100.51
3259.00,100.51
3258.00,100.51
3257.00,100.51
3256.00,100.51
3255.00,100.51
3254.00,100.51
3253.00,100.52
3252.00,100.52
3251.00,100.52
3250.00,100.52
3249.00,100.51
3248.00,100.51
3247.00,100.51
3246.00,100.51
3245.00,100.51
3244.00,100.51
3243.00,100.51
3242.00,100.51
3241.00,100.51
3240.00,100.51
3239.00,100.51
3238.00,100.52
3237.00,100.52
3236.00,100.51
3235.00,100.51
3234.00,100.51
3233.00,100.51
3232.00,100.51
3231.00,100.51
3230.00,100.52
3229.00,100.52
3228.00,100.53
3227.00,100.53
3226.00,100.53
3225.00,100.52
3224.00,100.52
3223.00,100.52
3222.00,100.51
3221.00,100.51
3220.00,100.51
3219.00,100.51
3218.00,100.51
3217.00,100.51
3216.00,100.51
3215.00,100.51
3214.00,100.51
3213.00,100.51
3212.00,100.52
3211.00,100.52
3210.00,100.52
3209.00,100.52
3208.00,100.52
3207.00,100.52
3206.00,100.52
3205.00,100.52
3204.00,100.52
3203.00,100.52
3202.00,100.51
3201.00,100.51
3200.00,100.51
3199.00,100.51
3198.00,100.51
3197.00,100.51
3196.00,100.52
3195.00,100.52
3194.00,100.52
3193.00,100.52
3192.00,100.52
3191.00,100.51
3190.00,100.51
3189.00,100.52
3188.00,100.52
3187.00,100.52
3186.00,100.52
3185.00,100.52
3184.00,100.52
3183.00,100.52
3182.00,100.52
3181.00,100.53
3180.00,100.53
3179.00,100.53
3178.00,100.53
3177.00,100.53
3176.00,100.53
3175.00,100.53
3174.00,100.53
3173.00,100.53
3172.00,100.53
3171.00,100.53
3170.00,100.53
3169.00,100.53
3168.00,100.53
3167.00,100.53
3166.00,100.53
3165.00,100.53
3164.00,100.53
3163.00,100.52
3162.00,100.52
3161.00,100.52
3160.00,100.52
3159.00,100.52
3158.00,100.52
3157.00,100.52
3156.00,100.52
3155.00,100.52
3154.00,100.52
3153.00,100.52
3152.00,100.52
3151.00,100.52
3150.00,100.52
3149.00,100.53
3148.00,100.53
3147.00,100.53
3146.00,100.53
3145.00,100.53
3144.00,100.53
3143.00,100.52
3142.00,100.52
3141.00,100.51
3140.00,100.51
3139.00,100.51
3138.00,100.51
3137.00,100.52
3136.00,100.53
3135.00,100.53
3134.00,100.53
3133.00,100.53
3132.00,100.53
3131.00,100.52
3130.00,100.52
3129.00,100.53
3128.00,100.53
3127.00,100.53
3126.00,100.53
3125.00,100.53
3124.00,100.53
3123.00,100.53
3122.00,100.52
3121.00,100.52
3120.00,100.52
3119.00,100.52
3118.00,100.52
3117.00,100.52
3116.00,100.53
3115.00,100.53
3114.00,100.53
3113.00,100.53
3112.00,100.53
3111.00,100.53
3110.00,100.53
3109.00,100.53
3108.00,100.53
3107.00,100.53
3106.00,100.54
3105.00,100.54
3104.00,100.54
3103.00,100.54
3102.00,100.54
3101.00,100.53
3100.00,100.53
3099.00,100.53
3098.00,100.53
3097.00,100.53
3096.00,100.53
3095.00,100.53
3094.00,100.53
3093.00,100.53
3092.00,100.52
3091.00,100.52
3090.00,100.53
3089.00,100.54
3088.00,100.54
3087.00,100.55
3086.00,100.55
3085.00,100.54
3084.00,100.54
3083.00,100.54
3082.00,100.54
3081.00,100.54
3080.00,100.54
3079.00,100.53
3078.00,100.54
3077.00,100.54
3076.00,100.54
3075.00,100.54
3074.00,100.54
3073.00,100.54
3072.00,100.54
3071.00,100.54
3070.00,100.54
3069.00,100.54
3068.00,100.54
3067.00,100.54
3066.00,100.54
3065.00,100.54
3064.00,100.54
3063.00,100.54
3062.00,100.54
3061.00,100.54
3060.00,100.54
3059.00,100.54
3058.00,100.54
3057.00,100.54
3056.00,100.54
3055.00,100.55
3054.00,100.55
3053.00,100.55
3052.00,100.55
3051.00,100.55
3050.00,100.55
3049.00,100.55
3048.00,100.54
3047.00,100.54
3046.00,100.54
3045.00,100.54
3044.00,100.54
3043.00,100.55
3042.00,100.54
3041.00,100.54
3040.00,100.54
3039.00,100.54
3038.00,100.54
3037.00,100.53
3036.00,100.53
3035.00,100.54
3034.00,100.54
3033.00,100.54
3032.00,100.54
3031.00,100.54
3030.00,100.54
3029.00,100.54
3028.00,100.53
3027.00,100.53
3026.00,100.53
3025.00,100.52
3024.00,100.52
3023.00,100.52
3022.00,100.52
3021.00,100.52
3020.00,100.51
3019.00,100.51
3018.00,100.50
3017.00,100.50
3016.00,100.49
3015.00,100.49
3014.00,100.49
3013.00,100.49
3012.00,100.49
3011.00,100.49
3010.00,100.48
3009.00,100.48
3008.00,100.48
3007.00,100.47
3006.00,100.47
3005.00,100.47
3004.00,100.46
3003.00,100.46
3002.00,100.46
3001.00,100.46
3000.00,100.46
2999.00,100.46
2998.00,100.46
2997.00,100.45
2996.00,100.45
2995.00,100.45
2994.00,100.44
2993.00,100.44
2992.00,100.43
2991.00,100.43
2990.00,100.42
2989.00,100.42
2988.00,100.41
2987.00,100.41
2986.00,100.41
2985.00,100.41
2984.00,100.42
2983.00,100.42
2982.00,100.42
2981.00,100.42
2980.00,100.42
2979.00,100.42
2978.00,100.43
2977.00,100.43
2976.00,100.43
2975.00,100.43
2974.00,100.43
2973.00,100.42
2972.00,100.42
2971.00,100.43
2970.00,100.43
2969.00,100.44
2968.00,100.44
2967.00,100.45
2966.00,100.45
2965.00,100.46
2964.00,100.46
2963.00,100.47
2962.00,100.47
2961.00,100.48
2960.00,100.48
2959.00,100.48
2958.00,100.48
2957.00,100.47
2956.00,100.47
2955.00,100.48
2954.00,100.49
2953.00,100.49
2952.00,100.49
2951.00,100.49
2950.00,100.50
2949.00,100.50
2948.00,100.50
2947.00,100.50
2946.00,100.51
2945.00,100.52
2944.00,100.52
2943.00,100.52
2942.00,100.52
2941.00,100.51
2940.00,100.51
2939.00,100.52
2938.00,100.52
2937.00,100.53
2936.00,100.54
2935.00,100.54
2934.00,100.55
2933.00,100.55
2932.00,100.54
2931.00,100.54
2930.00,100.54
2929.00,100.54
2928.00,100.55
2927.00,100.56
2926.00,100.56
2925.00,100.56
2924.00,100.56
2923.00,100.55
2922.00,100.55
2921.00,100.55
2920.00,100.54
2919.00,100.54
2918.00,100.53
2917.00,100.52
2916.00,100.52
2915.00,100.52
2914.00,100.52
2913.00,100.52
2912.00,100.51
2911.00,100.51
2910.00,100.51
2909.00,100.50
2908.00,100.50
2907.00,100.50
2906.00,100.50
2905.00,100.50
2904.00,100.50
2903.00,100.49
2902.00,100.49
2901.00,100.49
2900.00,100.49
2899.00,100.49
2898.00,100.49
2897.00,100.49
2896.00,100.50
2895.00,100.50
2894.00,100.50
2893.00,100.50
2892.00,100.50
2891.00,100.50
2890.00,100.50
2889.00,100.50
2888.00,100.50
2887.00,100.50
2886.00,100.50
2885.00,100.49
2884.00,100.49
2883.00,100.49
2882.00,100.50
2881.00,100.50
2880.00,100.51
2879.00,100.51
2878.00,100.52
2877.00,100.52
2876.00,100.52
2875.00,100.52
2874.00,100.52
2873.00,100.53
2872.00,100.53
2871.00,100.53
2870.00,100.54
2869.00,100.54
2868.00,100.55
2867.00,100.55
2866.00,100.55
2865.00,100.55
2864.00,100.55
2863.00,100.55
2862.00,100.55
2861.00,100.56
2860.00,100.56
2859.00,100.57
2858.00,100.57
2857.00,100.57
2856.00,100.58
2855.00,100.58
2854.00,100.58
2853.00,100.58
2852.00,100.58
2851.00,100.58
2850.00,100.58
2849.00,100.58
2848.00,100.58
2847.00,100.58
2846.00,100.57
2845.00,100.57
2844.00,100.56
2843.00,100.56
2842.00,100.55
2841.00,100.55
2840.00,100.55
2839.00,100.56
2838.00,100.56
2837.00,100.56
2836.00,100.56
2835.00,100.56
2834.00,100.57
2833.00,100.57
2832.00,100.57
2831.00,100.58
2830.00,100.57
2829.00,100.57
2828.00,100.57
2827.00,100.57
2826.00,100.57
2825.00,100.56
2824.00,100.56
2823.00,100.56
2822.00,100.56
2821.00,100.56
2820.00,100.56
2819.00,100.56
2818.00,100.56
2817.00,100.56
2816.00,100.57
2815.00,100.57
2814.00,100.57
2813.00,100.57
2812.00,100.57
2811.00,100.57
2810.00,100.57
2809.00,100.57
2808.00,100.57
2807.00,100.56
2806.00,100.57
2805.00,100.57
2804.00,100.57
2803.00,100.57
2802.00,100.57
2801.00,100.57
2800.00,100.57
2799.00,100.57
2798.00,100.56
2797.00,100.56
2796.00,100.56
2795.00,100.57
2794.00,100.57
2793.00,100.57
2792.00,100.57
2791.00,100.57
2790.00,100.57
2789.00,100.57
2788.00,100.57
2787.00,100.57
2786.00,100.57
2785.00,100.57
2784.00,100.57
2783.00,100.57
2782.00,100.57
2781.00,100.57
2780.00,100.57
2779.00,100.57
2778.00,100.56
2777.00,100.56
2776.00,100.56
2775.00,100.57
2774.00,100.57
2773.00,100.58
2772.00,100.58
2771.00,100.58
2770.00,100.58
2769.00,100.57
2768.00,100.57
2767.00,100.57
2766.00,100.57
2765.00,100.57
2764.00,100.57
2763.00,100.58
2762.00,100.58
2761.00,100.57
2760.00,100.57
2759.00,100.56
2758.00,100.56
2757.00,100.56
2756.00,100.56
2755.00,100.56
2754.00,100.56
2753.00,100.57
2752.00,100.57
2751.00,100.57
2750.00,100.58
2749.00,100.58
2748.00,100.58
2747.00,100.57
2746.00,100.57
2745.00,100.57
2744.00,100.57
2743.00,100.57
2742.00,100.57
2741.00,100.58
2740.00,100.58
2739.00,100.58
2738.00,100.58
2737.00,100.58
2736.00,100.58
2735.00,100.57
2734.00,100.57
2733.00,100.57
2732.00,100.57
2731.00,100.57
2730.00,100.56
2729.00,100.56
2728.00,100.56
2727.00,100.57
2726.00,100.57
2725.00,100.57
2724.00,100.57
2723.00,100.57
2722.00,100.57
2721.00,100.56
2720.00,100.57
2719.00,100.57
2718.00,100.57
2717.00,100.57
2716.00,100.57
2715.00,100.57
2714.00,100.58
2713.00,100.58
2712.00,100.58
2711.00,100.58
2710.00,100.57
2709.00,100.57
2708.00,100.57
2707.00,100.57
2706.00,100.57
2705.00,100.57
2704.00,100.57
2703.00,100.57
2702.00,100.57
2701.00,100.57
2700.00,100.56
2699.00,100.56
2698.00,100.56
2697.00,100.56
2696.00,100.56
2695.00,100.56
2694.00,100.56
2693.00,100.57
2692.00,100.57
2691.00,100.58
2690.00,100.57
2689.00,100.57
2688.00,100.56
2687.00,100.56
2686.00,100.56
2685.00,100.57
2684.00,100.57
2683.00,100.57
2682.00,100.56
2681.00,100.56
2680.00,100.56
2679.00,100.56
2678.00,100.57
2677.00,100.57
2676.00,100.57
2675.00,100.57
2674.00,100.57
2673.00,100.57
2672.00,100.57
2671.00,100.57
2670.00,100.56
2669.00,100.56
2668.00,100.56
2667.00,100.56
2666.00,100.56
2665.00,100.56
2664.00,100.56
2663.00,100.56
2662.00,100.55
2661.00,100.55
2660.00,100.55
2659.00,100.55
2658.00,100.55
2657.00,100.55
2656.00,100.55
2655.00,100.55
2654.00,100.56
2653.00,100.56
2652.00,100.56
2651.00,100.56
2650.00,100.56
2649.00,100.56
2648.00,100.56
2647.00,100.56
2646.00,100.56
2645.00,100.56
2644.00,100.56
2643.00,100.56
2642.00,100.56
2641.00,100.56
2640.00,100.56
2639.00,100.57
2638.00,100.57
2637.00,100.57
2636.00,100.56
2635.00,100.56
2634.00,100.56
2633.00,100.55
2632.00,100.56
2631.00,100.56
2630.00,100.56
2629.00,100.56
2628.00,100.55
2627.00,100.55
2626.00,100.55
2625.00,100.55
2624.00,100.55
2623.00,100.55
2622.00,100.55
2621.00,100.55
2620.00,100.56
2619.00,100.56
2618.00,100.56
2617.00,100.56
2616.00,100.56
2615.00,100.55
2614.00,100.55
2613.00,100.55
2612.00,100.54
2611.00,100.54
2610.00,100.54
2609.00,100.55
2608.00,100.55
2607.00,100.55
2606.00,100.55
2605.00,100.56
2604.00,100.56
2603.00,100.57
2602.00,100.57
2601.00,100.57
2600.00,100.57
2599.00,100.56
2598.00,100.56
2597.00,100.56
2596.00,100.56
2595.00,100.55
2594.00,100.55
2593.00,100.55
2592.00,100.55
2591.00,100.55
2590.00,100.55
2589.00,100.55
2588.00,100.55
2587.00,100.54
2586.00,100.54
2585.00,100.54
2584.00,100.54
2583.00,100.54
2582.00,100.54
2581.00,100.55
2580.00,100.55
2579.00,100.55
2578.00,100.55
2577.00,100.55
2576.00,100.55
2575.00,100.55
2574.00,100.55
2573.00,100.55
2572.00,100.55
2571.00,100.55
2570.00,100.55
2569.00,100.55
2568.00,100.55
2567.00,100.55
2566.00,100.55
2565.00,100.55
2564.00,100.54
2563.00,100.54
2562.00,100.54
2561.00,100.53
2560.00,100.54
2559.00,100.54
2558.00,100.54
2557.00,100.54
2556.00,100.54
2555.00,100.54
2554.00,100.53
2553.00,100.54
2552.00,100.54
2551.00,100.55
2550.00,100.55
2549.00,100.55
2548.00,100.54
2547.00,100.54
2546.00,100.54
2545.00,100.53
2544.00,100.53
2543.00,100.53
2542.00,100.53
2541.00,100.53
2540.00,100.54
2539.00,100.54
2538.00,100.54
2537.00,100.53
2536.00,100.52
2535.00,100.52
2534.00,100.52
2533.00,100.52
2532.00,100.53
2531.00,100.54
2530.00,100.55
2529.00,100.55
2528.00,100.56
2527.00,100.56
2526.00,100.56
2525.00,100.55
2524.00,100.55
2523.00,100.55
2522.00,100.55
2521.00,100.55
2520.00,100.54
2519.00,100.55
2518.00,100.55
2517.00,100.55
2516.00,100.55
2515.00,100.55
2514.00,100.55
2513.00,100.54
2512.00,100.54
2511.00,100.54
2510.00,100.53
2509.00,100.53
2508.00,100.53
2507.00,100.54
2506.00,100.54
2505.00,100.54
2504.00,100.53
2503.00,100.53
2502.00,100.53
2501.00,100.53
2500.00,100.53
2499.00,100.53
2498.00,100.52
2497.00,100.52
2496.00,100.53
2495.00,100.53
2494.00,100.53
2493.00,100.53
2492.00,100.53
2491.00,100.53
2490.00,100.53
2489.00,100.54
2488.00,100.53
2487.00,100.53
2486.00,100.53
2485.00,100.53
2484.00,100.53
2483.00,100.53
2482.00,100.54
2481.00,100.54
2480.00,100.54
2479.00,100.54
2478.00,100.54
2477.00,100.54
2476.00,100.54
2475.00,100.53
2474.00,100.53
2473.00,100.53
2472.00,100.53
2471.00,100.54
2470.00,100.54
2469.00,100.54
2468.00,100.53
2467.00,100.53
2466.00,100.52
2465.00,100.52
2464.00,100.52
2463.00,100.52
2462.00,100.53
2461.00,100.53
2460.00,100.54
2459.00,100.55
2458.00,100.55
2457.00,100.54
2456.00,100.54
2455.00,100.53
2454.00,100.52
2453.00,100.53
2452.00,100.53
2451.00,100.54
2450.00,100.54
2449.00,100.53
2448.00,100.53
2447.00,100.53
2446.00,100.54
2445.00,100.54
2444.00,100.54
2443.00,100.54
2442.00,100.54
2441.00,100.53
2440.00,100.53
2439.00,100.53
2438.00,100.53
2437.00,100.53
2436.00,100.54
2435.00,100.54
2434.00,100.54
2433.00,100.54
2432.00,100.53
2431.00,100.53
2430.00,100.53
2429.00,100.53
2428.00,100.53
2427.00,100.53
2426.00,100.53
2425.00,100.53
2424.00,100.53
2423.00,100.52
2422.00,100.52
2421.00,100.52
2420.00,100.52
2419.00,100.53
2418.00,100.53
2417.00,100.53
2416.00,100.53
2415.00,100.53
2414.00,100.54
2413.00,100.54
2412.00,100.54
2411.00,100.55
2410.00,100.55
2409.00,100.56
2408.00,100.56
2407.00,100.56
2406.00,100.56
2405.00,100.55
2404.00,100.55
2403.00,100.54
2402.00,100.54
2401.00,100.54
2400.00,100.54
2399.00,100.54
2398.00,100.54
2397.00,100.54
2396.00,100.54
2395.00,100.54
2394.00,100.54
2393.00,100.54
2392.00,100.54
2391.00,100.54
2390.00,100.54
2389.00,100.53
2388.00,100.53
2387.00,100.52
2386.00,100.51
2385.00,100.51
2384.00,100.50
2383.00,100.50
2382.00,100.51
2381.00,100.52
2380.00,100.53
2379.00,100.55
2378.00,100.56
2377.00,100.56
2376.00,100.57
2375.00,100.57
2374.00,100.56
2373.00,100.54
2372.00,100.52
2371.00,100.51
2370.00,100.49
2369.00,100.49
2368.00,100.49
2367.00,100.50
2366.00,100.49
2365.00,100.49
2364.00,100.49
2363.00,100.50
2362.00,100.53
2361.00,100.53
2360.00,100.52
2359.00,100.51
2358.00,100.52
2357.00,100.54
2356.00,100.56
2355.00,100.56
2354.00,100.54
2353.00,100.53
2352.00,100.52
2351.00,100.52
2350.00,100.52
2349.00,100.52
2348.00,100.53
2347.00,100.53
2346.00,100.52
2345.00,100.51
2344.00,100.50
2343.00,100.50
2342.00,100.51
2341.00,100.52
2340.00,100.52
2339.00,100.53
2338.00,100.53
2337.00,100.55
2336.00,100.56
2335.00,100.57
2334.00,100.57
2333.00,100.56
2332.00,100.54
2331.00,100.52
2330.00,100.52
2329.00,100.52
2328.00,100.53
2327.00,100.53
2326.00,100.53
2325.00,100.53
2324.00,100.53
2323.00,100.52
2322.00,100.52
2321.00,100.52
2320.00,100.51
2319.00,100.51
2318.00,100.50
2317.00,100.51
2316.00,100.52
2315.00,100.53
2314.00,100.53
2313.00,100.52
2312.00,100.51
2311.00,100.50
2310.00,100.50
2309.00,100.51
2308.00,100.51
2307.00,100.51
2306.00,100.51
2305.00,100.50
2304.00,100.50
2303.00,100.50
2302.00,100.50
2301.00,100.50
2300.00,100.50
2299.00,100.51
2298.00,100.51
2297.00,100.51
2296.00,100.51
2295.00,100.51
2294.00,100.51
2293.00,100.52
2292.00,100.52
2291.00,100.52
2290.00,100.52
2289.00,100.52
2288.00,100.52
2287.00,100.52
2286.00,100.53
2285.00,100.53
2284.00,100.53
2283.00,100.53
2282.00,100.53
2281.00,100.53
2280.00,100.53
2279.00,100.53
2278.00,100.52
2277.00,100.52
2276.00,100.52
2275.00,100.52
2274.00,100.53
2273.00,100.53
2272.00,100.52
2271.00,100.52
2270.00,100.52
2269.00,100.52
2268.00,100.53
2267.00,100.53
2266.00,100.53
2265.00,100.54
2264.00,100.54
2263.00,100.54
2262.00,100.53
2261.00,100.52
2260.00,100.52
2259.00,100.52
2258.00,100.53
2257.00,100.54
2256.00,100.54
2255.00,100.55
2254.00,100.55
2253.00,100.55
2252.00,100.55
2251.00,100.56
2250.00,100.56
2249.00,100.57
2248.00,100.56
2247.00,100.56
2246.00,100.55
2245.00,100.55
2244.00,100.55
2243.00,100.56
2242.00,100.57
2241.00,100.57
2240.00,100.56
2239.00,100.56
2238.00,100.56
2237.00,100.55
2236.00,100.56
2235.00,100.56
2234.00,100.56
2233.00,100.56
2232.00,100.56
2231.00,100.57
2230.00,100.58
2229.00,100.58
2228.00,100.58
2227.00,100.57
2226.00,100.55
2225.00,100.53
2224.00,100.52
2223.00,100.53
2222.00,100.54
2221.00,100.56
2220.00,100.57
2219.00,100.58
2218.00,100.59
2217.00,100.59
2216.00,100.58
2215.00,100.57
2214.00,100.56
2213.00,100.55
2212.00,100.55
2211.00,100.55
2210.00,100.56
2209.00,100.57
2208.00,100.58
2207.00,100.57
2206.00,100.55
2205.00,100.53
2204.00,100.53
2203.00,100.54
2202.00,100.56
2201.00,100.57
2200.00,100.57
2199.00,100.57
2198.00,100.57
2197.00,100.56
2196.00,100.56
2195.00,100.56
2194.00,100.56
2193.00,100.55
2192.00,100.55
2191.00,100.54
2190.00,100.54
2189.00,100.55
2188.00,100.56
2187.00,100.59
2186.00,100.60
2185.00,100.59
2184.00,100.58
2183.00,100.56
2182.00,100.54
2181.00,100.54
2180.00,100.53
2179.00,100.53
2178.00,100.53
2177.00,100.53
2176.00,100.53
2175.00,100.53
2174.00,100.52
2173.00,100.51
2172.00,100.51
2171.00,100.52
2170.00,100.53
2169.00,100.55
2168.00,100.55
2167.00,100.54
2166.00,100.53
2165.00,100.52
2164.00,100.53
2163.00,100.55
2162.00,100.55
2161.00,100.54
2160.00,100.54
2159.00,100.55
2158.00,100.56
2157.00,100.57
2156.00,100.57
2155.00,100.57
2154.00,100.57
2153.00,100.57
2152.00,100.56
2151.00,100.56
2150.00,100.57
2149.00,100.58
2148.00,100.59
2147.00,100.60
2146.00,100.60
2145.00,100.59
2144.00,100.57
2143.00,100.56
2142.00,100.55
2141.00,100.56
2140.00,100.57
2139.00,100.57
2138.00,100.57
2137.00,100.56
2136.00,100.56
2135.00,100.57
2134.00,100.58
2133.00,100.59
2132.00,100.59
2131.00,100.58
2130.00,100.57
2129.00,100.56
2128.00,100.55
2127.00,100.55
2126.00,100.55
2125.00,100.57
2124.00,100.59
2123.00,100.59
2122.00,100.58
2121.00,100.57
2120.00,100.57
2119.00,100.56
2118.00,100.56
2117.00,100.56
2116.00,100.56
2115.00,100.57
2114.00,100.58
2113.00,100.58
2112.00,100.58
2111.00,100.58
2110.00,100.58
2109.00,100.58
2108.00,100.57
2107.00,100.57
2106.00,100.58
2105.00,100.57
2104.00,100.56
2103.00,100.54
2102.00,100.53
2101.00,100.53
2100.00,100.54
2099.00,100.54
2098.00,100.55
2097.00,100.56
2096.00,100.56
2095.00,100.56
2094.00,100.57
2093.00,100.57
2092.00,100.57
2091.00,100.57
2090.00,100.57
2089.00,100.57
2088.00,100.57
2087.00,100.57
2086.00,100.57
2085.00,100.56
2084.00,100.55
2083.00,100.56
2082.00,100.57
2081.00,100.58
2080.00,100.58
2079.00,100.58
2078.00,100.58
2077.00,100.58
2076.00,100.58
2075.00,100.58
2074.00,100.57
2073.00,100.57
2072.00,100.57
2071.00,100.56
2070.00,100.56
2069.00,100.56
2068.00,100.57
2067.00,100.58
2066.00,100.60
2065.00,100.60
2064.00,100.59
2063.00,100.58
2062.00,100.57
2061.00,100.57
2060.00,100.57
2059.00,100.57
2058.00,100.57
2057.00,100.56
2056.00,100.56
2055.00,100.57
2054.00,100.58
2053.00,100.60
2052.00,100.60
2051.00,100.60
2050.00,100.59
2049.00,100.58
2048.00,100.57
2047.00,100.56
2046.00,100.55
2045.00,100.55
2044.00,100.56
2043.00,100.57
2042.00,100.58
2041.00,100.57
2040.00,100.56
2039.00,100.55
2038.00,100.55
2037.00,100.56
2036.00,100.58
2035.00,100.59
2034.00,100.58
2033.00,100.56
2032.00,100.54
2031.00,100.54
2030.00,100.55
2029.00,100.57
2028.00,100.58
2027.00,100.60
2026.00,100.61
2025.00,100.61
2024.00,100.61
2023.00,100.61
2022.00,100.60
2021.00,100.60
2020.00,100.60
2019.00,100.60
2018.00,100.60
2017.00,100.58
2016.00,100.56
2015.00,100.54
2014.00,100.54
2013.00,100.56
2012.00,100.58
2011.00,100.60
2010.00,100.62
2009.00,100.62
2008.00,100.60
2007.00,100.57
2006.00,100.54
2005.00,100.52
2004.00,100.52
2003.00,100.53
2002.00,100.55
2001.00,100.56
2000.00,100.57
1999.00,100.58
1998.00,100.59
1997.00,100.59
1996.00,100.59
1995.00,100.59
1994.00,100.59
1993.00,100.59
1992.00,100.60
1991.00,100.59
1990.00,100.59
1989.00,100.58
1988.00,100.58
1987.00,100.58
1986.00,100.58
1985.00,100.59
1984.00,100.60
1983.00,100.60
1982.00,100.59
1981.00,100.58
1980.00,100.56
1979.00,100.55
1978.00,100.54
1977.00,100.54
1976.00,100.54
1975.00,100.54
1974.00,100.53
1973.00,100.52
1972.00,100.52
1971.00,100.53
1970.00,100.54
1969.00,100.55
1968.00,100.57
1967.00,100.58
1966.00,100.59
1965.00,100.60
1964.00,100.60
1963.00,100.59
1962.00,100.57
1961.00,100.55
1960.00,100.53
1959.00,100.52
1958.00,100.52
1957.00,100.53
1956.00,100.54
1955.00,100.57
1954.00,100.58
1953.00,100.58
1952.00,100.58
1951.00,100.57
1950.00,100.57
1949.00,100.57
1948.00,100.58
1947.00,100.58
1946.00,100.57
1945.00,100.55
1944.00,100.54
1943.00,100.54
1942.00,100.54
1941.00,100.54
1940.00,100.54
1939.00,100.54
1938.00,100.55
1937.00,100.56
1936.00,100.58
1935.00,100.59
1934.00,100.60
1933.00,100.60
1932.00,100.59
1931.00,100.60
1930.00,100.60
1929.00,100.60
1928.00,100.60
1927.00,100.59
1926.00,100.57
1925.00,100.57
1924.00,100.56
1923.00,100.57
1922.00,100.57
1921.00,100.58
1920.00,100.59
1919.00,100.59
1918.00,100.58
1917.00,100.58
1916.00,100.58
1915.00,100.59
1914.00,100.59
1913.00,100.59
1912.00,100.59
1911.00,100.58
1910.00,100.57
1909.00,100.57
1908.00,100.57
1907.00,100.57
1906.00,100.57
1905.00,100.58
1904.00,100.58
1903.00,100.59
1902.00,100.59
1901.00,100.59
1900.00,100.59
1899.00,100.59
1898.00,100.59
1897.00,100.60
1896.00,100.60
1895.00,100.60
1894.00,100.60
1893.00,100.59
1892.00,100.58
1891.00,100.57
1890.00,100.56
1889.00,100.57
1888.00,100.58
1887.00,100.58
1886.00,100.58
1885.00,100.58
1884.00,100.57
1883.00,100.57
1882.00,100.57
1881.00,100.58
1880.00,100.58
1879.00,100.57
1878.00,100.57
1877.00,100.57
1876.00,100.57
1875.00,100.57
1874.00,100.57
1873.00,100.57
1872.00,100.57
1871.00,100.56
1870.00,100.56
1869.00,100.56
1868.00,100.57
1867.00,100.57
1866.00,100.57
1865.00,100.57
1864.00,100.56
1863.00,100.57
1862.00,100.57
1861.00,100.57
1860.00,100.57
1859.00,100.57
1858.00,100.56
1857.00,100.56
1856.00,100.56
1855.00,100.57
1854.00,100.57
1853.00,100.58
1852.00,100.58
1851.00,100.58
1850.00,100.58
1849.00,100.58
1848.00,100.58
1847.00,100.58
1846.00,100.57
1845.00,100.58
1844.00,100.59
1843.00,100.60
1842.00,100.60
1841.00,100.61
1840.00,100.60
1839.00,100.59
1838.00,100.59
1837.00,100.58
1836.00,100.58
1835.00,100.58
1834.00,100.58
1833.00,100.59
1832.00,100.58
1831.00,100.58
1830.00,100.57
1829.00,100.57
1828.00,100.58
1827.00,100.58
1826.00,100.59
1825.00,100.59
1824.00,100.59
1823.00,100.58
1822.00,100.58
1821.00,100.58
1820.00,100.58
1819.00,100.59
1818.00,100.59
1817.00,100.59
1816.00,100.59
1815.00,100.58
1814.00,100.58
1813.00,100.58
1812.00,100.57
1811.00,100.57
1810.00,100.57
1809.00,100.57
1808.00,100.58
1807.00,100.58
1806.00,100.58
1805.00,100.58
1804.00,100.58
1803.00,100.58
1802.00,100.58
1801.00,100.57
1800.00,100.57
1799.00,100.58
1798.00,100.58
1797.00,100.58
1796.00,100.58
1795.00,100.58
1794.00,100.59
1793.00,100.59
1792.00,100.59
1791.00,100.59
1790.00,100.58
1789.00,100.58
1788.00,100.58
1787.00,100.58
1786.00,100.58
1785.00,100.58
1784.00,100.58
1783.00,100.58
1782.00,100.58
1781.00,100.58
1780.00,100.57
1779.00,100.57
1778.00,100.57
1777.00,100.57
1776.00,100.57
1775.00,100.57
1774.00,100.57
1773.00,100.56
1772.00,100.56
1771.00,100.56
1770.00,100.57
1769.00,100.57
1768.00,100.57
1767.00,100.57
1766.00,100.57
1765.00,100.57
1764.00,100.58
1763.00,100.58
1762.00,100.59
1761.00,100.59
1760.00,100.58
1759.00,100.58
1758.00,100.58
1757.00,100.58
1756.00,100.59
1755.00,100.59
1754.00,100.59
1753.00,100.59
1752.00,100.58
1751.00,100.59
1750.00,100.59
1749.00,100.60
1748.00,100.60
1747.00,100.60
1746.00,100.60
1745.00,100.60
1744.00,100.60
1743.00,100.60
1742.00,100.60
1741.00,100.60
1740.00,100.61
1739.00,100.61
1738.00,100.61
1737.00,100.61
1736.00,100.61
1735.00,100.61
1734.00,100.60
1733.00,100.60
1732.00,100.61
1731.00,100.61
1730.00,100.61
1729.00,100.61
1728.00,100.61
1727.00,100.61
1726.00,100.61
1725.00,100.61
1724.00,100.60
1723.00,100.60
1722.00,100.60
1721.00,100.59
1720.00,100.59
1719.00,100.59
1718.00,100.59
1717.00,100.60
1716.00,100.61
1715.00,100.61
1714.00,100.61
1713.00,100.61
1712.00,100.60
1711.00,100.60
1710.00,100.59
1709.00,100.59
1708.00,100.59
1707.00,100.59
1706.00,100.59
1705.00,100.60
1704.00,100.60
1703.00,100.60
1702.00,100.60
1701.00,100.59
1700.00,100.59
1699.00,100.59
1698.00,100.59
1697.00,100.60
1696.00,100.59
1695.00,100.59
1694.00,100.59
1693.00,100.59
1692.00,100.59
1691.00,100.59
1690.00,100.59
1689.00,100.60
1688.00,100.60
1687.00,100.60
1686.00,100.60
1685.00,100.60
1684.00,100.59
1683.00,100.59
1682.00,100.59
1681.00,100.60
1680.00,100.60
1679.00,100.60
1678.00,100.60
1677.00,100.59
1676.00,100.59
1675.00,100.59
1674.00,100.59
1673.00,100.59
1672.00,100.59
1671.00,100.58
1670.00,100.58
1669.00,100.59
1668.00,100.59
1667.00,100.59
1666.00,100.59
1665.00,100.59
1664.00,100.60
1663.00,100.60
1662.00,100.60
1661.00,100.60
1660.00,100.60
1659.00,100.60
1658.00,100.59
1657.00,100.59
1656.00,100.59
1655.00,100.59
1654.00,100.60
1653.00,100.61
1652.00,100.61
1651.00,100.61
1650.00,100.61
1649.00,100.61
1648.00,100.60
1647.00,100.60
1646.00,100.60
1645.00,100.60
1644.00,100.60
1643.00,100.59
1642.00,100.59
1641.00,100.59
1640.00,100.58
1639.00,100.57
1638.00,100.57
1637.00,100.57
1636.00,100.56
1635.00,100.55
1634.00,100.55
1633.00,100.56
1632.00,100.58
1631.00,100.59
1630.00,100.59
1629.00,100.58
1628.00,100.58
1627.00,100.59
1626.00,100.60
1625.00,100.60
1624.00,100.61
1623.00,100.61
1622.00,100.60
1621.00,100.60
1620.00,100.60
1619.00,100.60
1618.00,100.61
1617.00,100.61
1616.00,100.60
1615.00,100.60
1614.00,100.59
1613.00,100.59
1612.00,100.59
1611.00,100.58
1610.00,100.58
1609.00,100.59
1608.00,100.59
1607.00,100.59
1606.00,100.59
1605.00,100.59
1604.00,100.59
1603.00,100.59
1602.00,100.60
1601.00,100.60
1600.00,100.60
1599.00,100.60
1598.00,100.60
1597.00,100.60
1596.00,100.60
1595.00,100.59
1594.00,100.59
1593.00,100.59
1592.00,100.59
1591.00,100.58
1590.00,100.59
1589.00,100.59
1588.00,100.60
1587.00,100.60
1586.00,100.59
1585.00,100.59
1584.00,100.59
1583.00,100.59
1582.00,100.59
1581.00,100.59
1580.00,100.59
1579.00,100.59
1578.00,100.59
1577.00,100.59
1576.00,100.59
1575.00,100.59
1574.00,100.59
1573.00,100.59
1572.00,100.59
1571.00,100.59
1570.00,100.59
1569.00,100.59
1568.00,100.59
1567.00,100.59
1566.00,100.59
1565.00,100.59
1564.00,100.59
1563.00,100.59
1562.00,100.58
1561.00,100.58
1560.00,100.58
1559.00,100.59
1558.00,100.60
1557.00,100.61
1556.00,100.61
1555.00,100.60
1554.00,100.60
1553.00,100.60
1552.00,100.60
1551.00,100.60
1550.00,100.60
1549.00,100.61
1548.00,100.61
1547.00,100.61
1546.00,100.61
1545.00,100.60
1544.00,100.60
1543.00,100.60
1542.00,100.60
1541.00,100.60
1540.00,100.60
1539.00,100.60
1538.00,100.60
1537.00,100.60
1536.00,100.60
1535.00,100.60
1534.00,100.60
1533.00,100.60
1532.00,100.60
1531.00,100.60
1530.00,100.60
1529.00,100.60
1528.00,100.59
1527.00,100.59
1526.00,100.59
1525.00,100.59
1524.00,100.59
1523.00,100.60
1522.00,100.60
1521.00,100.60
1520.00,100.60
1519.00,100.60
1518.00,100.60
1517.00,100.60
1516.00,100.60
1515.00,100.60
1514.00,100.61
1513.00,100.61
1512.00,100.61
1511.00,100.62
1510.00,100.62
1509.00,100.62
1508.00,100.63
1507.00,100.63
1506.00,100.63
1505.00,100.63
1504.00,100.62
1503.00,100.62
1502.00,100.62
1501.00,100.62
1500.00,100.62
1499.00,100.62
1498.00,100.62
1497.00,100.61
1496.00,100.60
1495.00,100.59
1494.00,100.59
1493.00,100.58
1492.00,100.58
1491.00,100.58
1490.00,100.58
1489.00,100.59
1488.00,100.59
1487.00,100.60
1486.00,100.59
1485.00,100.59
1484.00,100.59
1483.00,100.59
1482.00,100.59
1481.00,100.59
1480.00,100.59
1479.00,100.59
1478.00,100.59
1477.00,100.60
1476.00,100.60
1475.00,100.60
1474.00,100.59
1473.00,100.59
1472.00,100.59
1471.00,100.59
1470.00,100.60
1469.00,100.60
1468.00,100.60
1467.00,100.60
1466.00,100.60
1465.00,100.60
1464.00,100.60
1463.00,100.59
1462.00,100.59
1461.00,100.60
1460.00,100.60
1459.00,100.61
1458.00,100.61
1457.00,100.61
1456.00,100.61
1455.00,100.61
1454.00,100.61
1453.00,100.61
1452.00,100.61
1451.00,100.60
1450.00,100.59
1449.00,100.59
1448.00,100.59
1447.00,100.60
1446.00,100.60
1445.00,100.60
1444.00,100.59
1443.00,100.59
1442.00,100.59
1441.00,100.59
1440.00,100.59
1439.00,100.60
1438.00,100.60
1437.00,100.60
1436.00,100.60
1435.00,100.59
1434.00,100.59
1433.00,100.59
1432.00,100.59
1431.00,100.59
1430.00,100.59
1429.00,100.59
1428.00,100.59
1427.00,100.59
1426.00,100.59
1425.00,100.59
1424.00,100.58
1423.00,100.58
1422.00,100.58
1421.00,100.58
1420.00,100.58
1419.00,100.57
1418.00,100.57
1417.00,100.57
1416.00,100.57
1415.00,100.56
1414.00,100.57
1413.00,100.57
1412.00,100.57
1411.00,100.57
1410.00,100.57
1409.00,100.57
1408.00,100.58
1407.00,100.58
1406.00,100.58
1405.00,100.58
1404.00,100.57
1403.00,100.57
1402.00,100.57
1401.00,100.57
1400.00,100.57
1399.00,100.57
1398.00,100.57
1397.00,100.57
1396.00,100.57
1395.00,100.56
1394.00,100.55
1393.00,100.55
1392.00,100.56
1391.00,100.56
1390.00,100.57
1389.00,100.57
1388.00,100.57
1387.00,100.57
1386.00,100.57
1385.00,100.57
1384.00,100.57
1383.00,100.57
1382.00,100.57
1381.00,100.57
1380.00,100.57
1379.00,100.57
1378.00,100.57
1377.00,100.57
1376.00,100.57
1375.00,100.58
1374.00,100.58
1373.00,100.58
1372.00,100.58
1371.00,100.58
1370.00,100.58
1369.00,100.58
1368.00,100.58
1367.00,100.58
1366.00,100.58
1365.00,100.59
1364.00,100.59
1363.00,100.59
1362.00,100.59
1361.00,100.59
1360.00,100.59
1359.00,100.60
1358.00,100.60
1357.00,100.60
1356.00,100.60
1355.00,100.60
1354.00,100.61
1353.00,100.61
1352.00,100.61
1351.00,100.61
1350.00,100.61
1349.00,100.61
1348.00,100.60
1347.00,100.60
1346.00,100.59
1345.00,100.60
1344.00,100.60
1343.00,100.60
1342.00,100.59
1341.00,100.59
1340.00,100.59
1339.00,100.59
1338.00,100.59
1337.00,100.59
1336.00,100.59
1335.00,100.59
1334.00,100.59
1333.00,100.59
1332.00,100.59
1331.00,100.59
1330.00,100.59
1329.00,100.59
1328.00,100.59
1327.00,100.59
1326.00,100.58
1325.00,100.58
1324.00,100.58
1323.00,100.58
1322.00,100.58
1321.00,100.58
1320.00,100.59
1319.00,100.59
1318.00,100.59
1317.00,100.59
1316.00,100.59
1315.00,100.58
1314.00,100.57
1313.00,100.57
1312.00,100.57
1311.00,100.57
1310.00,100.58
1309.00,100.58
1308.00,100.58
1307.00,100.58
1306.00,100.59
1305.00,100.59
1304.00,100.60
1303.00,100.59
1302.00,100.59
1301.00,100.60
1300.00,100.60
1299.00,100.60
1298.00,100.60
1297.00,100.60
1296.00,100.60
1295.00,100.60
1294.00,100.60
1293.00,100.60
1292.00,100.60
1291.00,100.60
1290.00,100.60
1289.00,100.61
1288.00,100.61
1287.00,100.61
1286.00,100.61
1285.00,100.61
1284.00,100.61
1283.00,100.62
1282.00,100.63
1281.00,100.63
1280.00,100.63
1279.00,100.63
1278.00,100.63
1277.00,100.63
1276.00,100.63
1275.00,100.62
1274.00,100.62
1273.00,100.62
1272.00,100.62
1271.00,100.62
1270.00,100.62
1269.00,100.61
1268.00,100.61
1267.00,100.61
1266.00,100.60
1265.00,100.60
1264.00,100.60
1263.00,100.60
1262.00,100.60
1261.00,100.60
1260.00,100.60
1259.00,100.59
1258.00,100.59
1257.00,100.59
1256.00,100.59
1255.00,100.59
1254.00,100.59
1253.00,100.58
1252.00,100.58
1251.00,100.58
1250.00,100.58
1249.00,100.58
1248.00,100.58
1247.00,100.58
1246.00,100.59
1245.00,100.59
1244.00,100.59
1243.00,100.58
1242.00,100.58
1241.00,100.57
1240.00,100.57
1239.00,100.56
1238.00,100.56
1237.00,100.56
1236.00,100.57
1235.00,100.58
1234.00,100.58
1233.00,100.58
1232.00,100.58
1231.00,100.57
1230.00,100.56
1229.00,100.56
1228.00,100.56
1227.00,100.56
1226.00,100.56
1225.00,100.57
1224.00,100.57
1223.00,100.57
1222.00,100.57
1221.00,100.57
1220.00,100.57
1219.00,100.57
1218.00,100.58
1217.00,100.58
1216.00,100.58
1215.00,100.59
1214.00,100.59
1213.00,100.60
1212.00,100.60
1211.00,100.60
1210.00,100.60
1209.00,100.60
1208.00,100.60
1207.00,100.60
1206.00,100.61
1205.00,100.60
1204.00,100.60
1203.00,100.59
1202.00,100.59
1201.00,100.60
1200.00,100.60
1199.00,100.60
1198.00,100.60
1197.00,100.60
1196.00,100.60
1195.00,100.60
1194.00,100.60
1193.00,100.59
1192.00,100.59
1191.00,100.59
1190.00,100.59
1189.00,100.60
1188.00,100.60
1187.00,100.60
1186.00,100.60
1185.00,100.60
1184.00,100.60
1183.00,100.60
1182.00,100.61
1181.00,100.61
1180.00,100.61
1179.00,100.61
1178.00,100.61
1177.00,100.62
1176.00,100.62
1175.00,100.63
1174.00,100.63
1173.00,100.63
1172.00,100.63
1171.00,100.63
1170.00,100.63
1169.00,100.63
1168.00,100.63
1167.00,100.63
1166.00,100.63
1165.00,100.63
1164.00,100.62
1163.00,100.62
1162.00,100.61
1161.00,100.61
1160.00,100.61
1159.00,100.61
1158.00,100.61
1157.00,100.61
1156.00,100.60
1155.00,100.60
1154.00,100.60
1153.00,100.60
1152.00,100.60
1151.00,100.60
1150.00,100.60
1149.00,100.60
1148.00,100.60
1147.00,100.60
1146.00,100.60
1145.00,100.60
1144.00,100.60
1143.00,100.60
1142.00,100.61
1141.00,100.61
1140.00,100.62
1139.00,100.63
1138.00,100.63
1137.00,100.64
1136.00,100.64
1135.00,100.65
1134.00,100.65
1133.00,100.64
1132.00,100.64
1131.00,100.64
1130.00,100.64
1129.00,100.65
1128.00,100.65
1127.00,100.65
1126.00,100.64
1125.00,100.63
1124.00,100.63
1123.00,100.63
1122.00,100.63
1121.00,100.64
1120.00,100.63
1119.00,100.63
1118.00,100.62
1117.00,100.61
1116.00,100.61
1115.00,100.62
1114.00,100.62
1113.00,100.62
1112.00,100.62
1111.00,100.61
1110.00,100.61
1109.00,100.61
1108.00,100.61
1107.00,100.60
1106.00,100.60
1105.00,100.59
1104.00,100.59
1103.00,100.58
1102.00,100.58
1101.00,100.58
1100.00,100.58
1099.00,100.57
1098.00,100.57
1097.00,100.57
1096.00,100.56
1095.00,100.55
1094.00,100.55
1093.00,100.55
1092.00,100.55
1091.00,100.54
1090.00,100.53
1089.00,100.51
1088.00,100.50
1087.00,100.50
1086.00,100.50
1085.00,100.50
1084.00,100.50
1083.00,100.50
1082.00,100.49
1081.00,100.48
1080.00,100.48
1079.00,100.48
1078.00,100.48
1077.00,100.47
1076.00,100.47
1075.00,100.46
1074.00,100.47
1073.00,100.47
1072.00,100.47
1071.00,100.47
1070.00,100.47
1069.00,100.46
1068.00,100.46
1067.00,100.46
1066.00,100.47
1065.00,100.48
1064.00,100.48
1063.00,100.49
1062.00,100.50
1061.00,100.50
1060.00,100.50
1059.00,100.50
1058.00,100.50
1057.00,100.50
1056.00,100.50
1055.00,100.51
1054.00,100.52
1053.00,100.53
1052.00,100.53
1051.00,100.53
1050.00,100.53
1049.00,100.52
1048.00,100.51
1047.00,100.50
1046.00,100.49
1045.00,100.49
1044.00,100.50
1043.00,100.51
1042.00,100.52
1041.00,100.52
1040.00,100.52
1039.00,100.52
1038.00,100.53
1037.00,100.54
1036.00,100.55
1035.00,100.57
1034.00,100.58
1033.00,100.58
1032.00,100.59
1031.00,100.59
1030.00,100.59
1029.00,100.59
1028.00,100.60
1027.00,100.61
1026.00,100.62
1025.00,100.65
1024.00,100.67
1023.00,100.69
1022.00,100.70
1021.00,100.72
1020.00,100.73
1019.00,100.74
1018.00,100.75
1017.00,100.76
1016.00,100.76
1015.00,100.75
1014.00,100.74
1013.00,100.72
1012.00,100.70
1011.00,100.68
1010.00,100.66
1009.00,100.64
1008.00,100.63
1007.00,100.63
1006.00,100.63
1005.00,100.63
1004.00,100.63
1003.00,100.63
1002.00,100.63
1001.00,100.63
1000.00,100.63
999.00,100.63
998.00,100.63
997.00,100.63
996.00,100.63
995.00,100.63
994.00,100.62
993.00,100.62
992.00,100.62
991.00,100.63
990.00,100.63
989.00,100.63
988.00,100.63
987.00,100.62
986.00,100.61
985.00,100.60
984.00,100.61
983.00,100.61
982.00,100.63
981.00,100.64
980.00,100.64
979.00,100.63
978.00,100.62
977.00,100.61
976.00,100.61
975.00,100.61
974.00,100.61
973.00,100.62
972.00,100.62
971.00,100.62
970.00,100.62
969.00,100.62
968.00,100.62
967.00,100.63
966.00,100.63
965.00,100.63
964.00,100.63
963.00,100.64
962.00,100.63
961.00,100.63
960.00,100.63
959.00,100.63
958.00,100.63
957.00,100.64
956.00,100.64
955.00,100.64
954.00,100.64
953.00,100.63
952.00,100.63
951.00,100.62
950.00,100.63
949.00,100.63
948.00,100.64
947.00,100.64
946.00,100.64
945.00,100.64
944.00,100.64
943.00,100.64
942.00,100.63
941.00,100.63
940.00,100.62
939.00,100.62
938.00,100.62
937.00,100.63
936.00,100.63
935.00,100.63
934.00,100.63
933.00,100.62
932.00,100.62
931.00,100.62
930.00,100.62
929.00,100.63
928.00,100.65
927.00,100.66
926.00,100.67
925.00,100.66
924.00,100.65
923.00,100.65
922.00,100.66
921.00,100.66
920.00,100.66
919.00,100.65
918.00,100.64
917.00,100.63
916.00,100.63
915.00,100.64
914.00,100.65
913.00,100.66
912.00,100.66
911.00,100.66
910.00,100.66
909.00,100.64
908.00,100.63
907.00,100.62
906.00,100.61
905.00,100.62
904.00,100.63
903.00,100.64
902.00,100.65
901.00,100.66
900.00,100.66
899.00,100.66
898.00,100.65
897.00,100.65
896.00,100.64
895.00,100.64
894.00,100.63
893.00,100.63
892.00,100.63
891.00,100.64
890.00,100.64
889.00,100.63
888.00,100.62
887.00,100.62
886.00,100.62
885.00,100.63
884.00,100.64
883.00,100.65
882.00,100.65
881.00,100.65
880.00,100.65
879.00,100.65
878.00,100.64
877.00,100.63
876.00,100.63
875.00,100.63
874.00,100.64
873.00,100.65
872.00,100.65
871.00,100.65
870.00,100.66
869.00,100.66
868.00,100.65
867.00,100.65
866.00,100.65
865.00,100.65
864.00,100.65
863.00,100.65
862.00,100.65
861.00,100.66
860.00,100.67
859.00,100.67
858.00,100.66
857.00,100.66
856.00,100.65
855.00,100.66
854.00,100.66
853.00,100.67
852.00,100.66
851.00,100.65
850.00,100.65
849.00,100.64
848.00,100.65
847.00,100.66
846.00,100.68
845.00,100.69
844.00,100.70
843.00,100.70
842.00,100.70
841.00,100.70
840.00,100.69
839.00,100.67
838.00,100.67
837.00,100.67
836.00,100.69
835.00,100.70
834.00,100.70
833.00,100.69
832.00,100.68
831.00,100.67
830.00,100.67
829.00,100.67
828.00,100.68
827.00,100.69
826.00,100.69
825.00,100.69
824.00,100.68
823.00,100.67
822.00,100.66
821.00,100.64
820.00,100.64
819.00,100.65
818.00,100.66
817.00,100.67
816.00,100.68
815.00,100.68
814.00,100.68
813.00,100.67
812.00,100.67
811.00,100.67
810.00,100.68
809.00,100.70
808.00,100.71
807.00,100.72
806.00,100.72
805.00,100.72
804.00,100.72
803.00,100.71
802.00,100.70
801.00,100.70
800.00,100.70
799.00,100.72
798.00,100.72
797.00,100.73
796.00,100.73
795.00,100.73
794.00,100.73
793.00,100.73
792.00,100.73
791.00,100.72
790.00,100.71
789.00,100.70
788.00,100.69
787.00,100.70
786.00,100.70
785.00,100.71
784.00,100.72
783.00,100.72
782.00,100.72
781.00,100.72
780.00,100.72
779.00,100.72
778.00,100.72
777.00,100.71
776.00,100.71
775.00,100.71
774.00,100.72
773.00,100.71
772.00,100.71
771.00,100.70
770.00,100.70
769.00,100.70
768.00,100.70
767.00,100.71
766.00,100.73
765.00,100.74
764.00,100.75
763.00,100.75
762.00,100.74
761.00,100.73
760.00,100.72
759.00,100.72
758.00,100.73
757.00,100.73
756.00,100.73
755.00,100.73
754.00,100.72
753.00,100.71
752.00,100.72
751.00,100.73
750.00,100.74
749.00,100.74
748.00,100.73
747.00,100.72
746.00,100.71
745.00,100.70
744.00,100.70
743.00,100.70
742.00,100.72
741.00,100.73
740.00,100.74
739.00,100.75
738.00,100.75
737.00,100.74
736.00,100.73
735.00,100.72
734.00,100.72
733.00,100.73
732.00,100.74
731.00,100.75
730.00,100.76
729.00,100.77
728.00,100.77
727.00,100.76
726.00,100.75
725.00,100.74
724.00,100.74
723.00,100.74
722.00,100.75
721.00,100.73
720.00,100.71
719.00,100.69
718.00,100.69
717.00,100.70
716.00,100.71
715.00,100.72
714.00,100.71
713.00,100.70
712.00,100.69
711.00,100.69
710.00,100.70
709.00,100.70
708.00,100.69
707.00,100.68
706.00,100.68
705.00,100.68
704.00,100.69
703.00,100.69
702.00,100.70
701.00,100.70
700.00,100.69
699.00,100.69
698.00,100.69
697.00,100.69
696.00,100.69
695.00,100.68
694.00,100.67
693.00,100.68
692.00,100.70
691.00,100.72
690.00,100.74
689.00,100.75
688.00,100.75
687.00,100.74
686.00,100.73
685.00,100.72
684.00,100.71
683.00,100.70
682.00,100.71
681.00,100.71
680.00,100.73
679.00,100.75
678.00,100.77
677.00,100.77
676.00,100.76
675.00,100.76
674.00,100.76
673.00,100.77
672.00,100.77
671.00,100.78
670.00,100.82
669.00,100.87
668.00,100.88
667.00,100.81
666.00,100.75
665.00,100.73
664.00,100.72
663.00,100.72
662.00,100.72
661.00,100.72
660.00,100.71
659.00,100.69
658.00,100.70
657.00,100.74
656.00,100.79
655.00,100.82
654.00,100.81
653.00,100.77
652.00,100.72
651.00,100.69
650.00,100.69
