Created as New Dataset,Sample 307 By iruser Date Friday, March 13 2026
cm-1,%T
4200.00,100.80
4199.00,100.80
4198.00,100.79
4197.00,100.78
4196.00,100.78
4195.00,100.78
4194.00,100.79
4193.00,100.79
4192.00,100.80
4191.00,100.80
4190.00,100.79
4189.00,100.79
4188.00,100.79
4187.00,100.80
4186.00,100.80
4185.00,100.79
4184.00,100.79
4183.00,100.78
4182.00,100.77
4181.00,100.78
4180.00,100.78
4179.00,100.78
4178.00,100.79
4177.00,100.79
4176.00,100.79
4175.00,100.80
4174.00,100.79
4173.00,100.79
4172.00,100.79
4171.00,100.79
4170.00,100.79
4169.00,100.79
4168.00,100.79
4167.00,100.79
4166.00,100.79
4165.00,100.78
4164.00,100.78
4163.00,100.78
4162.00,100.78
4161.00,100.78
4160.00,100.78
4159.00,100.77
4158.00,100.77
4157.00,100.76
4156.00,100.76
4155.00,100.76
4154.00,100.76
4153.00,100.76
4152.00,100.76
4151.00,100.76
4150.00,100.76
4149.00,100.75
4148.00,100.75
4147.00,100.75
4146.00,100.76
4145.00,100.76
4144.00,100.76
4143.00,100.76
4142.00,100.75
4141.00,100.75
4140.00,100.74
4139.00,100.74
4138.00,100.74
4137.00,100.74
4136.00,100.74
4135.00,100.74
4134.00,100.75
4133.00,100.75
4132.00,100.75
4131.00,100.75
4130.00,100.75
4129.00,100.75
4128.00,100.75
4127.00,100.74
4126.00,100.74
4125.00,100.74
4124.00,100.74
4123.00,100.74
4122.00,100.74
4121.00,100.75
4120.00,100.75
4119.00,100.75
4118.00,100.74
4117.00,100.74
4116.00,100.73
4115.00,100.73
4114.00,100.72
4113.00,100.72
4112.00,100.72
4111.00,100.72
4110.00,100.72
4109.00,100.72
4108.00,100.72
4107.00,100.72
4106.00,100.72
4105.00,100.72
4104.00,100.72
4103.00,100.72
4102.00,100.72
4101.00,100.72
4100.00,100.72
4099.00,100.71
4098.00,100.71
4097.00,100.71
4096.00,100.71
4095.00,100.71
4094.00,100.71
4093.00,100.72
4092.00,100.72
4091.00,100.72
4090.00,100.71
4089.00,100.71
4088.00,100.70
4087.00,100.70
4086.00,100.70
4085.00,100.71
4084.00,100.71
4083.00,100.71
4082.00,100.71
4081.00,100.71
4080.00,100.71
4079.00,100.70
4078.00,100.70
4077.00,100.69
4076.00,100.69
4075.00,100.69
4074.00,100.69
4073.00,100.70
4072.00,100.70
4071.00,100.70
4070.00,100.70
4069.00,100.70
4068.00,100.70
4067.00,100.70
4066.00,100.70
4065.00,100.70
4064.00,100.69
4063.00,100.69
4062.00,100.68
4061.00,100.68
4060.00,100.68
4059.00,100.68
4058.00,100.69
4057.00,100.69
4056.00,100.69
4055.00,100.69
4054.00,100.69
4053.00,100.69
4052.00,100.69
4051.00,100.68
4050.00,100.68
4049.00,100.68
4048.00,100.68
4047.00,100.68
4046.00,100.69
4045.00,100.69
4044.00,100.69
4043.00,100.68
4042.00,100.68
4041.00,100.68
4040.00,100.68
4039.00,100.68
4038.00,100.68
4037.00,100.68
4036.00,100.68
4035.00,100.68
4034.00,100.68
4033.00,100.67
4032.00,100.67
4031.00,100.66
4030.00,100.66
4029.00,100.66
4028.00,100.67
4027.00,100.67
4026.00,100.67
4025.00,100.67
4024.00,100.66
4023.00,100.66
4022.00,100.66
4021.00,100.66
4020.00,100.67
4019.00,100.67
4018.00,100.66
4017.00,100.66
4016.00,100.66
4015.00,100.66
4014.00,100.66
4013.00,100.66
4012.00,100.66
4011.00,100.66
4010.00,100.66
4009.00,100.66
4008.00,100.66
4007.00,100.66
4006.00,100.66
4005.00,100.66
4004.00,100.66
4003.00,100.66
4002.00,100.66
4001.00,100.65
4000.00,100.65
3999.00,100.65
3998.00,100.65
3997.00,100.65
3996.00,100.66
3995.00,100.66
3994.00,100.66
3993.00,100.65
3992.00,100.65
3991.00,100.65
3990.00,100.65
3989.00,100.65
3988.00,100.65
3987.00,100.66
3986.00,100.66
3985.00,100.65
3984.00,100.65
3983.00,100.65
3982.00,100.65
3981.00,100.65
3980.00,100.65
3979.00,100.65
3978.00,100.64
3977.00,100.64
3976.00,100.64
3975.00,100.64
3974.00,100.64
3973.00,100.64
3972.00,100.64
3971.00,100.64
3970.00,100.64
3969.00,100.64
3968.00,100.64
3967.00,100.64
3966.00,100.64
3965.00,100.63
3964.00,100.63
3963.00,100.63
3962.00,100.63
3961.00,100.63
3960.00,100.63
3959.00,100.63
3958.00,100.63
3957.00,100.63
3956.00,100.63
3955.00,100.63
3954.00,100.62
3953.00,100.62
3952.00,100.62
3951.00,100.62
3950.00,100.62
3949.00,100.63
3948.00,100.63
3947.00,100.63
3946.00,100.63
3945.00,100.63
3944.00,100.63
3943.00,100.64
3942.00,100.64
3941.00,100.63
3940.00,100.63
3939.00,100.63
3938.00,100.62
3937.00,100.62
3936.00,100.62
3935.00,100.62
3934.00,100.62
3933.00,100.62
3932.00,100.62
3931.00,100.62
3930.00,100.62
3929.00,100.62
3928.00,100.62
3927.00,100.62
3926.00,100.62
3925.00,100.62
3924.00,100.63
3923.00,100.63
3922.00,100.63
3921.00,100.63
3920.00,100.62
3919.00,100.62
3918.00,100.61
3917.00,100.60
3916.00,100.61
3915.00,100.61
3914.00,100.62
3913.00,100.63
3912.00,100.63
3911.00,100.63
3910.00,100.63
3909.00,100.63
3908.00,100.62
3907.00,100.62
3906.00,100.61
3905.00,100.61
3904.00,100.61
3903.00,100.61
3902.00,100.61
3901.00,100.61
3900.00,100.60
3899.00,100.60
3898.00,100.60
3897.00,100.60
3896.00,100.61
3895.00,100.61
3894.00,100.61
3893.00,100.61
3892.00,100.61
3891.00,100.61
3890.00,100.62
3889.00,100.62
3888.00,100.63
3887.00,100.63
3886.00,100.63
3885.00,100.63
3884.00,100.63
3883.00,100.62
3882.00,100.61
3881.00,100.61
3880.00,100.62
3879.00,100.63
3878.00,100.63
3877.00,100.63
3876.00,100.63
3875.00,100.63
3874.00,100.63
3873.00,100.63
3872.00,100.62
3871.00,100.62
3870.00,100.61
3869.00,100.61
3868.00,100.61
3867.00,100.62
3866.00,100.62
3865.00,100.62
3864.00,100.62
3863.00,100.62
3862.00,100.62
3861.00,100.62
3860.00,100.63
3859.00,100.63
3858.00,100.64
3857.00,100.64
3856.00,100.65
3855.00,100.66
3854.00,100.65
3853.00,100.65
3852.00,100.64
3851.00,100.64
3850.00,100.64
3849.00,100.63
3848.00,100.63
3847.00,100.63
3846.00,100.63
3845.00,100.62
3844.00,100.62
3843.00,100.62
3842.00,100.62
3841.00,100.62
3840.00,100.63
3839.00,100.64
3838.00,100.65
3837.00,100.65
3836.00,100.65
3835.00,100.65
3834.00,100.64
3833.00,100.64
3832.00,100.63
3831.00,100.63
3830.00,100.63
3829.00,100.63
3828.00,100.63
3827.00,100.63
3826.00,100.63
3825.00,100.63
3824.00,100.63
3823.00,100.63
3822.00,100.62
3821.00,100.62
3820.00,100.63
3819.00,100.63
3818.00,100.64
3817.00,100.65
3816.00,100.66
3815.00,100.66
3814.00,100.65
3813.00,100.64
3812.00,100.63
3811.00,100.63
3810.00,100.63
3809.00,100.64
3808.00,100.65
3807.00,100.65
3806.00,100.65
3805.00,100.64
3804.00,100.64
3803.00,100.63
3802.00,100.63
3801.00,100.63
3800.00,100.64
3799.00,100.65
3798.00,100.65
3797.00,100.65
3796.00,100.64
3795.00,100.64
3794.00,100.64
3793.00,100.64
3792.00,100.64
3791.00,100.64
3790.00,100.63
3789.00,100.63
3788.00,100.63
3787.00,100.63
3786.00,100.63
3785.00,100.64
3784.00,100.64
3783.00,100.64
3782.00,100.64
3781.00,100.64
3780.00,100.64
3779.00,100.64
3778.00,100.64
3777.00,100.64
3776.00,100.65
3775.00,100.64
3774.00,100.64
3773.00,100.64
3772.00,100.63
3771.00,100.63
3770.00,100.63
3769.00,100.64
3768.00,100.64
3767.00,100.64
3766.00,100.64
3765.00,100.64
3764.00,100.65
3763.00,100.65
3762.00,100.65
3761.00,100.64
3760.00,100.64
3759.00,100.63
3758.00,100.63
3757.00,100.63
3756.00,100.64
3755.00,100.64
3754.00,100.65
3753.00,100.66
3752.00,100.66
3751.00,100.66
3750.00,100.66
3749.00,100.67
3748.00,100.66
3747.00,100.66
3746.00,100.66
3745.00,100.67
3744.00,100.67
3743.00,100.67
3742.00,100.66
3741.00,100.66
3740.00,100.65
3739.00,100.65
3738.00,100.64
3737.00,100.63
3736.00,100.62
3735.00,100.62
3734.00,100.62
3733.00,100.63
3732.00,100.64
3731.00,100.64
3730.00,100.64
3729.00,100.64
3728.00,100.63
3727.00,100.63
3726.00,100.63
3725.00,100.64
3724.00,100.64
3723.00,100.64
3722.00,100.64
3721.00,100.64
3720.00,100.64
3719.00,100.65
3718.00,100.65
3717.00,100.65
3716.00,100.65
3715.00,100.65
3714.00,100.65
3713.00,100.65
3712.00,100.65
3711.00,100.64
3710.00,100.64
3709.00,100.64
3708.00,100.63
3707.00,100.62
3706.00,100.61
3705.00,100.61
3704.00,100.61
3703.00,100.61
3702.00,100.61
3701.00,100.60
3700.00,100.60
3699.00,100.59
3698.00,100.57
3697.00,100.56
3696.00,100.55
3695.00,100.55
3694.00,100.55
3693.00,100.55
3692.00,100.55
3691.00,100.55
3690.00,100.56
3689.00,100.56
3688.00,100.57
3687.00,100.56
3686.00,100.56
3685.00,100.55
3684.00,100.55
3683.00,100.55
3682.00,100.55
3681.00,100.54
3680.00,100.53
3679.00,100.52
3678.00,100.52
3677.00,100.51
3676.00,100.52
3675.00,100.53
3674.00,100.54
3673.00,100.54
3672.00,100.54
3671.00,100.54
3670.00,100.54
3669.00,100.54
3668.00,100.53
3667.00,100.53
3666.00,100.53
3665.00,100.53
3664.00,100.53
3663.00,100.53
3662.00,100.53
3661.00,100.53
3660.00,100.53
3659.00,100.54
3658.00,100.54
3657.00,100.55
3656.00,100.55
3655.00,100.56
3654.00,100.56
3653.00,100.56
3652.00,100.56
3651.00,100.56
3650.00,100.56
3649.00,100.56
3648.00,100.56
3647.00,100.57
3646.00,100.58
3645.00,100.59
3644.00,100.59
3643.00,100.60
3642.00,100.60
3641.00,100.60
3640.00,100.60
3639.00,100.60
3638.00,100.61
3637.00,100.61
3636.00,100.61
3635.00,100.62
3634.00,100.62
3633.00,100.62
3632.00,100.62
3631.00,100.62
3630.00,100.62
3629.00,100.63
3628.00,100.63
3627.00,100.64
3626.00,100.64
3625.00,100.65
3624.00,100.65
3623.00,100.65
3622.00,100.65
3621.00,100.65
3620.00,100.65
3619.00,100.65
3618.00,100.65
3617.00,100.64
3616.00,100.64
3615.00,100.64
3614.00,100.65
3613.00,100.66
3612.00,100.66
3611.00,100.67
3610.00,100.67
3609.00,100.67
3608.00,100.66
3607.00,100.66
3606.00,100.65
3605.00,100.64
3604.00,100.64
3603.00,100.64
3602.00,100.64
3601.00,100.65
3600.00,100.65
3599.00,100.66
3598.00,100.67
3597.00,100.67
3596.00,100.66
3595.00,100.66
3594.00,100.66
3593.00,100.65
3592.00,100.65
3591.00,100.65
3590.00,100.64
3589.00,100.63
3588.00,100.63
3587.00,100.63
3586.00,100.64
3585.00,100.65
3584.00,100.65
3583.00,100.64
3582.00,100.64
3581.00,100.64
3580.00,100.65
3579.00,100.65
3578.00,100.65
3577.00,100.65
3576.00,100.66
3575.00,100.66
3574.00,100.66
3573.00,100.66
3572.00,100.66
3571.00,100.66
3570.00,100.65
3569.00,100.64
3568.00,100.63
3567.00,100.62
3566.00,100.63
3565.00,100.64
3564.00,100.65
3563.00,100.65
3562.00,100.65
3561.00,100.65
3560.00,100.65
3559.00,100.65
3558.00,100.64
3557.00,100.64
3556.00,100.64
3555.00,100.64
3554.00,100.64
3553.00,100.64
3552.00,100.64
3551.00,100.64
3550.00,100.64
3549.00,100.64
3548.00,100.64
3547.00,100.64
3546.00,100.64
3545.00,100.64
3544.00,100.64
3543.00,100.64
3542.00,100.64
3541.00,100.64
3540.00,100.64
3539.00,100.63
3538.00,100.63
3537.00,100.62
3536.00,100.62
3535.00,100.63
3534.00,100.63
3533.00,100.63
3532.00,100.63
3531.00,100.63
3530.00,100.63
3529.00,100.63
3528.00,100.63
3527.00,100.63
3526.00,100.62
3525.00,100.62
3524.00,100.62
3523.00,100.62
3522.00,100.62
3521.00,100.63
3520.00,100.63
3519.00,100.63
3518.00,100.64
3517.00,100.63
3516.00,100.63
3515.00,100.62
3514.00,100.61
3513.00,100.61
3512.00,100.61
3511.00,100.61
3510.00,100.61
3509.00,100.61
3508.00,100.61
3507.00,100.61
3506.00,100.61
3505.00,100.60
3504.00,100.60
3503.00,100.61
3502.00,100.62
3501.00,100.62
3500.00,100.62
3499.00,100.61
3498.00,100.60
3497.00,100.60
3496.00,100.60
3495.00,100.60
3494.00,100.60
3493.00,100.60
3492.00,100.60
3491.00,100.60
3490.00,100.59
3489.00,100.60
3488.00,100.60
3487.00,100.59
3486.00,100.59
3485.00,100.59
3484.00,100.59
3483.00,100.59
3482.00,100.59
3481.00,100.59
3480.00,100.59
3479.00,100.59
3478.00,100.59
3477.00,100.59
3476.00,100.59
3475.00,100.58
3474.00,100.58
3473.00,100.58
3472.00,100.57
3471.00,100.57
3470.00,100.57
3469.00,100.57
3468.00,100.57
3467.00,100.57
3466.00,100.58
3465.00,100.59
3464.00,100.59
3463.00,100.59
3462.00,100.58
3461.00,100.57
3460.00,100.56
3459.00,100.56
3458.00,100.56
3457.00,100.56
3456.00,100.56
3455.00,100.56
3454.00,100.56
3453.00,100.56
3452.00,100.56
3451.00,100.56
3450.00,100.56
3449.00,100.56
3448.00,100.55
3447.00,100.55
3446.00,100.54
3445.00,100.54
3444.00,100.55
3443.00,100.55
3442.00,100.55
3441.00,100.55
3440.00,100.55
3439.00,100.55
3438.00,100.55
3437.00,100.55
3436.00,100.55
3435.00,100.56
3434.00,100.56
3433.00,100.56
3432.00,100.55
3431.00,100.55
3430.00,100.54
3429.00,100.54
3428.00,100.54
3427.00,100.54
3426.00,100.54
3425.00,100.54
3424.00,100.54
3423.00,100.54
3422.00,100.54
3421.00,100.53
3420.00,100.53
3419.00,100.53
3418.00,100.53
3417.00,100.53
3416.00,100.53
3415.00,100.53
3414.00,100.53
3413.00,100.53
3412.00,100.53
3411.00,100.53
3410.00,100.53
3409.00,100.53
3408.00,100.54
3407.00,100.54
3406.00,100.54
3405.00,100.54
3404.00,100.53
3403.00,100.53
3402.00,100.52
3401.00,100.53
3400.00,100.53
3399.00,100.53
3398.00,100.53
3397.00,100.53
3396.00,100.53
3395.00,100.53
3394.00,100.53
3393.00,100.53
3392.00,100.53
3391.00,100.52
3390.00,100.52
3389.00,100.52
3388.00,100.52
3387.00,100.52
3386.00,100.52
3385.00,100.52
3384.00,100.52
3383.00,100.52
3382.00,100.51
3381.00,100.51
3380.00,100.50
3379.00,100.51
3378.00,100.51
3377.00,100.52
3376.00,100.52
3375.00,100.52
3374.00,100.52
3373.00,100.51
3372.00,100.51
3371.00,100.50
3370.00,100.50
3369.00,100.50
3368.00,100.51
3367.00,100.51
3366.00,100.52
3365.00,100.52
3364.00,100.51
3363.00,100.51
3362.00,100.51
3361.00,100.51
3360.00,100.51
3359.00,100.51
3358.00,100.51
3357.00,100.50
3356.00,100.50
3355.00,100.50
3354.00,100.50
3353.00,100.50
3352.00,100.50
3351.00,100.50
3350.00,100.49
3349.00,100.49
3348.00,100.49
3347.00,100.49
3346.00,100.49
3345.00,100.49
3344.00,100.50
3343.00,100.50
3342.00,100.50
3341.00,100.50
3340.00,100.50
3339.00,100.50
3338.00,100.49
3337.00,100.49
3336.00,100.49
3335.00,100.49
3334.00,100.50
3333.00,100.50
3332.00,100.50
3331.00,100.50
3330.00,100.49
3329.00,100.49
3328.00,100.48
3327.00,100.48
3326.00,100.48
3325.00,100.48
3324.00,100.49
3323.00,100.49
3322.00,100.49
3321.00,100.48
3320.00,100.48
3319.00,100.48
3318.00,100.48
3317.00,100.48
3316.00,100.48
3315.00,100.48
3314.00,100.49
3313.00,100.49
3312.00,100.48
3311.00,100.48
3310.00,100.48
3309.00,100.47
3308.00,100.47
3307.00,100.47
3306.00,100.46
3305.00,100.47
3304.00,100.47
3303.00,100.47
3302.00,100.47
3301.00,100.47
3300.00,100.47
3299.00,100.47
3298.00,100.48
3297.00,100.48
3296.00,100.48
3295.00,100.47
3294.00,100.47
3293.00,100.47
3292.00,100.47
3291.00,100.47
3290.00,100.47
3289.00,100.47
3288.00,100.47
3287.00,100.47
3286.00,100.48
3285.00,100.47
3284.00,100.47
3283.00,100.47
3282.00,100.46
3281.00,100.46
3280.00,100.46
3279.00,100.46
3278.00,100.46
3277.00,100.46
3276.00,100.47
3275.00,100.47
3274.00,100.47
3273.00,100.47
3272.00,100.47
3271.00,100.47
3270.00,100.47
3269.00,100.47
3268.00,100.47
3267.00,100.46
3266.00,100.46
3265.00,100.46
3264.00,100.46
3263.00,100.47
3262.00,100.47
3261.00,100.47
3260.00,100.46
3259.00,100.46
3258.00,100.46
3257.00,100.46
3256.00,100.46
3255.00,100.46
3254.00,100.46
3253.00,100.46
3252.00,100.46
3251.00,100.46
3250.00,100.47
3249.00,100.47
3248.00,100.46
3247.00,100.46
3246.00,100.46
3245.00,100.46
3244.00,100.46
3243.00,100.45
3242.00,100.45
3241.00,100.45
3240.00,100.45
3239.00,100.45
3238.00,100.45
3237.00,100.45
3236.00,100.45
3235.00,100.45
3234.00,100.46
3233.00,100.46
3232.00,100.46
3231.00,100.46
3230.00,100.46
3229.00,100.46
3228.00,100.46
3227.00,100.45
3226.00,100.45
3225.00,100.45
3224.00,100.45
3223.00,100.45
3222.00,100.45
3221.00,100.45
3220.00,100.45
3219.00,100.45
3218.00,100.46
3217.00,100.46
3216.00,100.47
3215.00,100.47
3214.00,100.47
3213.00,100.47
3212.00,100.47
3211.00,100.47
3210.00,100.47
3209.00,100.47
3208.00,100.46
3207.00,100.46
3206.00,100.46
3205.00,100.47
3204.00,100.47
3203.00,100.47
3202.00,100.47
3201.00,100.46
3200.00,100.46
3199.00,100.46
3198.00,100.46
3197.00,100.46
3196.00,100.46
3195.00,100.47
3194.00,100.47
3193.00,100.47
3192.00,100.47
3191.00,100.47
3190.00,100.47
3189.00,100.47
3188.00,100.47
3187.00,100.47
3186.00,100.47
3185.00,100.47
3184.00,100.46
3183.00,100.46
3182.00,100.46
3181.00,100.46
3180.00,100.46
3179.00,100.46
3178.00,100.46
3177.00,100.46
3176.00,100.47
3175.00,100.47
3174.00,100.47
3173.00,100.47
3172.00,100.47
3171.00,100.47
3170.00,100.48
3169.00,100.48
3168.00,100.48
3167.00,100.48
3166.00,100.48
3165.00,100.48
3164.00,100.48
3163.00,100.48
3162.00,100.47
3161.00,100.47
3160.00,100.47
3159.00,100.47
3158.00,100.47
3157.00,100.47
3156.00,100.47
3155.00,100.47
3154.00,100.47
3153.00,100.47
3152.00,100.48
3151.00,100.48
3150.00,100.48
3149.00,100.49
3148.00,100.49
3147.00,100.49
3146.00,100.49
3145.00,100.49
3144.00,100.49
3143.00,100.48
3142.00,100.49
3141.00,100.49
3140.00,100.49
3139.00,100.49
3138.00,100.49
3137.00,100.49
3136.00,100.49
3135.00,100.49
3134.00,100.49
3133.00,100.49
3132.00,100.48
3131.00,100.48
3130.00,100.48
3129.00,100.48
3128.00,100.49
3127.00,100.49
3126.00,100.50
3125.00,100.50
3124.00,100.50
3123.00,100.50
3122.00,100.49
3121.00,100.49
3120.00,100.48
3119.00,100.49
3118.00,100.49
3117.00,100.49
3116.00,100.50
3115.00,100.50
3114.00,100.50
3113.00,100.50
3112.00,100.50
3111.00,100.50
3110.00,100.51
3109.00,100.51
3108.00,100.51
3107.00,100.51
3106.00,100.51
3105.00,100.51
3104.00,100.51
3103.00,100.50
3102.00,100.49
3101.00,100.49
3100.00,100.49
3099.00,100.49
3098.00,100.50
3097.00,100.50
3096.00,100.51
3095.00,100.51
3094.00,100.52
3093.00,100.52
3092.00,100.52
3091.00,100.52
3090.00,100.52
3089.00,100.52
3088.00,100.52
3087.00,100.52
3086.00,100.52
3085.00,100.52
3084.00,100.52
3083.00,100.51
3082.00,100.51
3081.00,100.51
3080.00,100.50
3079.00,100.50
3078.00,100.51
3077.00,100.51
3076.00,100.51
3075.00,100.51
3074.00,100.51
3073.00,100.51
3072.00,100.52
3071.00,100.52
3070.00,100.52
3069.00,100.52
3068.00,100.51
3067.00,100.51
3066.00,100.51
3065.00,100.51
3064.00,100.51
3063.00,100.52
3062.00,100.53
3061.00,100.53
3060.00,100.53
3059.00,100.52
3058.00,100.52
3057.00,100.52
3056.00,100.52
3055.00,100.52
3054.00,100.52
3053.00,100.52
3052.00,100.52
3051.00,100.52
3050.00,100.51
3049.00,100.51
3048.00,100.51
3047.00,100.51
3046.00,100.51
3045.00,100.51
3044.00,100.50
3043.00,100.50
3042.00,100.50
3041.00,100.50
3040.00,100.51
3039.00,100.51
3038.00,100.50
3037.00,100.49
3036.00,100.48
3035.00,100.48
3034.00,100.47
3033.00,100.47
3032.00,100.47
3031.00,100.46
3030.00,100.46
3029.00,100.45
3028.00,100.43
3027.00,100.42
3026.00,100.42
3025.00,100.41
3024.00,100.41
3023.00,100.40
3022.00,100.40
3021.00,100.38
3020.00,100.37
3019.00,100.36
3018.00,100.35
3017.00,100.33
3016.00,100.32
3015.00,100.31
3014.00,100.30
3013.00,100.29
3012.00,100.27
3011.00,100.26
3010.00,100.24
3009.00,100.23
3008.00,100.21
3007.00,100.20
3006.00,100.19
3005.00,100.18
3004.00,100.17
3003.00,100.15
3002.00,100.14
3001.00,100.12
3000.00,100.11
2999.00,100.09
2998.00,100.08
2997.00,100.07
2996.00,100.07
2995.00,100.06
2994.00,100.04
2993.00,100.03
2992.00,100.00
2991.00,99.97
2990.00,99.95
2989.00,99.94
2988.00,99.93
2987.00,99.93
2986.00,99.93
2985.00,99.94
2984.00,99.95
2983.00,99.95
2982.00,99.95
2981.00,99.96
2980.00,99.96
2979.00,99.97
2978.00,99.97
2977.00,99.98
2976.00,99.98
2975.00,99.97
2974.00,99.97
2973.00,99.96
2972.00,99.96
2971.00,99.96
2970.00,99.96
2969.00,99.98
2968.00,99.99
2967.00,100.01
2966.00,100.02
2965.00,100.04
2964.00,100.05
2963.00,100.06
2962.00,100.07
2961.00,100.08
2960.00,100.09
2959.00,100.10
2958.00,100.11
2957.00,100.11
2956.00,100.12
2955.00,100.12
2954.00,100.13
2953.00,100.14
2952.00,100.15
2951.00,100.16
2950.00,100.17
2949.00,100.18
2948.00,100.19
2947.00,100.19
2946.00,100.19
2945.00,100.20
2944.00,100.21
2943.00,100.21
2942.00,100.22
2941.00,100.22
2940.00,100.22
2939.00,100.22
2938.00,100.23
2937.00,100.24
2936.00,100.25
2935.00,100.25
2934.00,100.26
2933.00,100.26
2932.00,100.26
2931.00,100.25
2930.00,100.25
2929.00,100.25
2928.00,100.25
2927.00,100.25
2926.00,100.25
2925.00,100.25
2924.00,100.25
2923.00,100.24
2922.00,100.24
2921.00,100.23
2920.00,100.22
2919.00,100.22
2918.00,100.21
2917.00,100.21
2916.00,100.20
2915.00,100.19
2914.00,100.18
2913.00,100.17
2912.00,100.17
2911.00,100.16
2910.00,100.16
2909.00,100.15
2908.00,100.15
2907.00,100.15
2906.00,100.15
2905.00,100.14
2904.00,100.13
2903.00,100.11
2902.00,100.10
2901.00,100.10
2900.00,100.10
2899.00,100.12
2898.00,100.13
2897.00,100.14
2896.00,100.16
2895.00,100.17
2894.00,100.17
2893.00,100.18
2892.00,100.18
2891.00,100.18
2890.00,100.18
2889.00,100.18
2888.00,100.18
2887.00,100.18
2886.00,100.18
2885.00,100.18
2884.00,100.19
2883.00,100.20
2882.00,100.21
2881.00,100.22
2880.00,100.22
2879.00,100.23
2878.00,100.25
2877.00,100.26
2876.00,100.27
2875.00,100.28
2874.00,100.28
2873.00,100.29
2872.00,100.29
2871.00,100.29
2870.00,100.30
2869.00,100.31
2868.00,100.32
2867.00,100.33
2866.00,100.34
2865.00,100.35
2864.00,100.36
2863.00,100.37
2862.00,100.38
2861.00,100.39
2860.00,100.40
2859.00,100.42
2858.00,100.43
2857.00,100.44
2856.00,100.45
2855.00,100.45
2854.00,100.46
2853.00,100.47
2852.00,100.47
2851.00,100.47
2850.00,100.47
2849.00,100.47
2848.00,100.47
2847.00,100.47
2846.00,100.47
2845.00,100.48
2844.00,100.48
2843.00,100.48
2842.00,100.48
2841.00,100.49
2840.00,100.49
2839.00,100.49
2838.00,100.50
2837.00,100.50
2836.00,100.50
2835.00,100.50
2834.00,100.51
2833.00,100.51
2832.00,100.51
2831.00,100.51
2830.00,100.52
2829.00,100.52
2828.00,100.51
2827.00,100.51
2826.00,100.51
2825.00,100.51
2824.00,100.52
2823.00,100.52
2822.00,100.52
2821.00,100.52
2820.00,100.51
2819.00,100.51
2818.00,100.52
2817.00,100.52
2816.00,100.52
2815.00,100.52
2814.00,100.52
2813.00,100.52
2812.00,100.52
2811.00,100.53
2810.00,100.53
2809.00,100.53
2808.00,100.53
2807.00,100.53
2806.00,100.53
2805.00,100.53
2804.00,100.53
2803.00,100.53
2802.00,100.53
2801.00,100.54
2800.00,100.54
2799.00,100.53
2798.00,100.53
2797.00,100.53
2796.00,100.53
2795.00,100.53
2794.00,100.54
2793.00,100.54
2792.00,100.54
2791.00,100.54
2790.00,100.54
2789.00,100.53
2788.00,100.53
2787.00,100.54
2786.00,100.54
2785.00,100.54
2784.00,100.54
2783.00,100.54
2782.00,100.54
2781.00,100.53
2780.00,100.53
2779.00,100.53
2778.00,100.53
2777.00,100.54
2776.00,100.54
2775.00,100.53
2774.00,100.53
2773.00,100.54
2772.00,100.54
2771.00,100.54
2770.00,100.54
2769.00,100.54
2768.00,100.54
2767.00,100.53
2766.00,100.53
2765.00,100.53
2764.00,100.54
2763.00,100.54
2762.00,100.54
2761.00,100.54
2760.00,100.54
2759.00,100.53
2758.00,100.53
2757.00,100.53
2756.00,100.53
2755.00,100.53
2754.00,100.53
2753.00,100.53
2752.00,100.54
2751.00,100.54
2750.00,100.54
2749.00,100.54
2748.00,100.54
2747.00,100.54
2746.00,100.54
2745.00,100.54
2744.00,100.54
2743.00,100.54
2742.00,100.54
2741.00,100.53
2740.00,100.53
2739.00,100.53
2738.00,100.53
2737.00,100.54
2736.00,100.54
2735.00,100.54
2734.00,100.54
2733.00,100.54
2732.00,100.54
2731.00,100.54
2730.00,100.54
2729.00,100.54
2728.00,100.53
2727.00,100.53
2726.00,100.53
2725.00,100.52
2724.00,100.52
2723.00,100.53
2722.00,100.53
2721.00,100.53
2720.00,100.53
2719.00,100.53
2718.00,100.53
2717.00,100.53
2716.00,100.53
2715.00,100.53
2714.00,100.54
2713.00,100.54
2712.00,100.54
2711.00,100.54
2710.00,100.53
2709.00,100.53
2708.00,100.53
2707.00,100.52
2706.00,100.52
2705.00,100.53
2704.00,100.53
2703.00,100.53
2702.00,100.54
2701.00,100.54
2700.00,100.54
2699.00,100.54
2698.00,100.53
2697.00,100.53
2696.00,100.53
2695.00,100.53
2694.00,100.53
2693.00,100.53
2692.00,100.53
2691.00,100.53
2690.00,100.53
2689.00,100.52
2688.00,100.52
2687.00,100.52
2686.00,100.52
2685.00,100.53
2684.00,100.53
2683.00,100.53
2682.00,100.52
2681.00,100.52
2680.00,100.52
2679.00,100.52
2678.00,100.52
2677.00,100.52
2676.00,100.52
2675.00,100.52
2674.00,100.52
2673.00,100.52
2672.00,100.52
2671.00,100.52
2670.00,100.52
2669.00,100.52
2668.00,100.52
2667.00,100.52
2666.00,100.52
2665.00,100.51
2664.00,100.51
2663.00,100.51
2662.00,100.51
2661.00,100.51
2660.00,100.51
2659.00,100.51
2658.00,100.51
2657.00,100.50
2656.00,100.50
2655.00,100.50
2654.00,100.50
2653.00,100.50
2652.00,100.50
2651.00,100.50
2650.00,100.50
2649.00,100.50
2648.00,100.50
2647.00,100.50
2646.00,100.50
2645.00,100.50
2644.00,100.50
2643.00,100.51
2642.00,100.50
2641.00,100.50
2640.00,100.50
2639.00,100.50
2638.00,100.50
2637.00,100.50
2636.00,100.49
2635.00,100.49
2634.00,100.49
2633.00,100.50
2632.00,100.50
2631.00,100.51
2630.00,100.50
2629.00,100.50
2628.00,100.50
2627.00,100.50
2626.00,100.50
2625.00,100.50
2624.00,100.50
2623.00,100.50
2622.00,100.50
2621.00,100.50
2620.00,100.50
2619.00,100.51
2618.00,100.50
2617.00,100.50
2616.00,100.50
2615.00,100.50
2614.00,100.49
2613.00,100.49
2612.00,100.49
2611.00,100.49
2610.00,100.49
2609.00,100.49
2608.00,100.49
2607.00,100.49
2606.00,100.50
2605.00,100.50
2604.00,100.50
2603.00,100.50
2602.00,100.50
2601.00,100.50
2600.00,100.50
2599.00,100.50
2598.00,100.49
2597.00,100.49
2596.00,100.49
2595.00,100.49
2594.00,100.50
2593.00,100.50
2592.00,100.50
2591.00,100.50
2590.00,100.49
2589.00,100.49
2588.00,100.49
2587.00,100.49
2586.00,100.49
2585.00,100.49
2584.00,100.49
2583.00,100.49
2582.00,100.49
2581.00,100.49
2580.00,100.49
2579.00,100.49
2578.00,100.48
2577.00,100.48
2576.00,100.48
2575.00,100.49
2574.00,100.49
2573.00,100.49
2572.00,100.48
2571.00,100.47
2570.00,100.47
2569.00,100.46
2568.00,100.46
2567.00,100.47
2566.00,100.47
2565.00,100.48
2564.00,100.48
2563.00,100.48
2562.00,100.48
2561.00,100.48
2560.00,100.48
2559.00,100.48
2558.00,100.48
2557.00,100.48
2556.00,100.47
2555.00,100.47
2554.00,100.47
2553.00,100.48
2552.00,100.49
2551.00,100.49
2550.00,100.48
2549.00,100.48
2548.00,100.48
2547.00,100.47
2546.00,100.47
2545.00,100.47
2544.00,100.47
2543.00,100.46
2542.00,100.47
2541.00,100.47
2540.00,100.47
2539.00,100.47
2538.00,100.46
2537.00,100.46
2536.00,100.45
2535.00,100.45
2534.00,100.46
2533.00,100.46
2532.00,100.46
2531.00,100.46
2530.00,100.46
2529.00,100.47
2528.00,100.47
2527.00,100.47
2526.00,100.47
2525.00,100.48
2524.00,100.48
2523.00,100.47
2522.00,100.47
2521.00,100.47
2520.00,100.47
2519.00,100.47
2518.00,100.46
2517.00,100.46
2516.00,100.45
2515.00,100.45
2514.00,100.46
2513.00,100.46
2512.00,100.47
2511.00,100.47
2510.00,100.47
2509.00,100.46
2508.00,100.46
2507.00,100.46
2506.00,100.46
2505.00,100.46
2504.00,100.46
2503.00,100.46
2502.00,100.46
2501.00,100.46
2500.00,100.45
2499.00,100.45
2498.00,100.45
2497.00,100.45
2496.00,100.45
2495.00,100.45
2494.00,100.46
2493.00,100.46
2492.00,100.45
2491.00,100.45
2490.00,100.45
2489.00,100.45
2488.00,100.45
2487.00,100.45
2486.00,100.46
2485.00,100.46
2484.00,100.46
2483.00,100.46
2482.00,100.46
2481.00,100.46
2480.00,100.46
2479.00,100.46
2478.00,100.46
2477.00,100.46
2476.00,100.45
2475.00,100.44
2474.00,100.44
2473.00,100.45
2472.00,100.45
2471.00,100.46
2470.00,100.47
2469.00,100.47
2468.00,100.46
2467.00,100.46
2466.00,100.45
2465.00,100.44
2464.00,100.44
2463.00,100.44
2462.00,100.44
2461.00,100.44
2460.00,100.45
2459.00,100.45
2458.00,100.45
2457.00,100.45
2456.00,100.45
2455.00,100.45
2454.00,100.45
2453.00,100.45
2452.00,100.44
2451.00,100.44
2450.00,100.44
2449.00,100.44
2448.00,100.45
2447.00,100.45
2446.00,100.44
2445.00,100.44
2444.00,100.44
2443.00,100.44
2442.00,100.44
2441.00,100.45
2440.00,100.45
2439.00,100.45
2438.00,100.44
2437.00,100.44
2436.00,100.44
2435.00,100.44
2434.00,100.44
2433.00,100.44
2432.00,100.44
2431.00,100.44
2430.00,100.44
2429.00,100.44
2428.00,100.44
2427.00,100.44
2426.00,100.44
2425.00,100.44
2424.00,100.44
2423.00,100.44
2422.00,100.44
2421.00,100.44
2420.00,100.43
2419.00,100.43
2418.00,100.42
2417.00,100.42
2416.00,100.43
2415.00,100.43
2414.00,100.42
2413.00,100.42
2412.00,100.42
2411.00,100.43
2410.00,100.44
2409.00,100.44
2408.00,100.45
2407.00,100.45
2406.00,100.45
2405.00,100.45
2404.00,100.45
2403.00,100.45
2402.00,100.45
2401.00,100.45
2400.00,100.45
2399.00,100.45
2398.00,100.44
2397.00,100.44
2396.00,100.43
2395.00,100.43
2394.00,100.43
2393.00,100.43
2392.00,100.43
2391.00,100.43
2390.00,100.44
2389.00,100.44
2388.00,100.44
2387.00,100.43
2386.00,100.42
2385.00,100.41
2384.00,100.41
2383.00,100.40
2382.00,100.40
2381.00,100.41
2380.00,100.42
2379.00,100.43
2378.00,100.45
2377.00,100.46
2376.00,100.48
2375.00,100.48
2374.00,100.48
2373.00,100.47
2372.00,100.46
2371.00,100.44
2370.00,100.43
2369.00,100.43
2368.00,100.43
2367.00,100.42
2366.00,100.40
2365.00,100.39
2364.00,100.39
2363.00,100.40
2362.00,100.42
2361.00,100.43
2360.00,100.43
2359.00,100.43
2358.00,100.43
2357.00,100.45
2356.00,100.46
2355.00,100.45
2354.00,100.44
2353.00,100.43
2352.00,100.42
2351.00,100.42
2350.00,100.42
2349.00,100.42
2348.00,100.42
2347.00,100.43
2346.00,100.42
2345.00,100.41
2344.00,100.40
2343.00,100.40
2342.00,100.40
2341.00,100.41
2340.00,100.42
2339.00,100.44
2338.00,100.45
2337.00,100.46
2336.00,100.46
2335.00,100.45
2334.00,100.44
2333.00,100.44
2332.00,100.43
2331.00,100.42
2330.00,100.41
2329.00,100.40
2328.00,100.40
2327.00,100.39
2326.00,100.39
2325.00,100.40
2324.00,100.41
2323.00,100.42
2322.00,100.44
2321.00,100.45
2320.00,100.44
2319.00,100.43
2318.00,100.42
2317.00,100.41
2316.00,100.41
2315.00,100.41
2314.00,100.41
2313.00,100.41
2312.00,100.41
2311.00,100.41
2310.00,100.42
2309.00,100.42
2308.00,100.42
2307.00,100.42
2306.00,100.42
2305.00,100.41
2304.00,100.41
2303.00,100.41
2302.00,100.41
2301.00,100.42
2300.00,100.42
2299.00,100.43
2298.00,100.42
2297.00,100.42
2296.00,100.42
2295.00,100.41
2294.00,100.41
2293.00,100.42
2292.00,100.43
2291.00,100.43
2290.00,100.43
2289.00,100.44
2288.00,100.44
2287.00,100.45
2286.00,100.46
2285.00,100.46
2284.00,100.46
2283.00,100.46
2282.00,100.46
2281.00,100.45
2280.00,100.46
2279.00,100.46
2278.00,100.46
2277.00,100.46
2276.00,100.45
2275.00,100.45
2274.00,100.46
2273.00,100.45
2272.00,100.45
2271.00,100.46
2270.00,100.46
2269.00,100.46
2268.00,100.46
2267.00,100.46
2266.00,100.46
2265.00,100.47
2264.00,100.47
2263.00,100.47
2262.00,100.48
2261.00,100.48
2260.00,100.48
2259.00,100.47
2258.00,100.47
2257.00,100.47
2256.00,100.48
2255.00,100.48
2254.00,100.48
2253.00,100.48
2252.00,100.48
2251.00,100.48
2250.00,100.48
2249.00,100.48
2248.00,100.48
2247.00,100.48
2246.00,100.48
2245.00,100.49
2244.00,100.50
2243.00,100.51
2242.00,100.51
2241.00,100.50
2240.00,100.49
2239.00,100.49
2238.00,100.48
2237.00,100.49
2236.00,100.49
2235.00,100.50
2234.00,100.50
2233.00,100.49
2232.00,100.49
2231.00,100.50
2230.00,100.51
2229.00,100.53
2228.00,100.55
2227.00,100.54
2226.00,100.53
2225.00,100.51
2224.00,100.49
2223.00,100.48
2222.00,100.49
2221.00,100.51
2220.00,100.53
2219.00,100.54
2218.00,100.54
2217.00,100.53
2216.00,100.53
2215.00,100.53
2214.00,100.51
2213.00,100.49
2212.00,100.48
2211.00,100.48
2210.00,100.50
2209.00,100.52
2208.00,100.54
2207.00,100.54
2206.00,100.53
2205.00,100.51
2204.00,100.50
2203.00,100.49
2202.00,100.50
2201.00,100.51
2200.00,100.51
2199.00,100.50
2198.00,100.49
2197.00,100.49
2196.00,100.49
2195.00,100.50
2194.00,100.51
2193.00,100.52
2192.00,100.51
2191.00,100.50
2190.00,100.51
2189.00,100.52
2188.00,100.54
2187.00,100.55
2186.00,100.54
2185.00,100.53
2184.00,100.51
2183.00,100.50
2182.00,100.50
2181.00,100.49
2180.00,100.48
2179.00,100.47
2178.00,100.46
2177.00,100.47
2176.00,100.49
2175.00,100.51
2174.00,100.51
2173.00,100.51
2172.00,100.51
2171.00,100.51
2170.00,100.51
2169.00,100.51
2168.00,100.51
2167.00,100.52
2166.00,100.52
2165.00,100.53
2164.00,100.55
2163.00,100.57
2162.00,100.57
2161.00,100.57
2160.00,100.56
2159.00,100.56
2158.00,100.56
2157.00,100.55
2156.00,100.54
2155.00,100.54
2154.00,100.54
2153.00,100.53
2152.00,100.52
2151.00,100.52
2150.00,100.52
2149.00,100.53
2148.00,100.54
2147.00,100.55
2146.00,100.55
2145.00,100.55
2144.00,100.54
2143.00,100.53
2142.00,100.51
2141.00,100.50
2140.00,100.49
2139.00,100.50
2138.00,100.50
2137.00,100.51
2136.00,100.51
2135.00,100.52
2134.00,100.53
2133.00,100.54
2132.00,100.54
2131.00,100.54
2130.00,100.54
2129.00,100.53
2128.00,100.53
2127.00,100.53
2126.00,100.53
2125.00,100.53
2124.00,100.52
2123.00,100.50
2122.00,100.49
2121.00,100.50
2120.00,100.51
2119.00,100.52
2118.00,100.53
2117.00,100.52
2116.00,100.52
2115.00,100.51
2114.00,100.50
2113.00,100.50
2112.00,100.49
2111.00,100.49
2110.00,100.49
2109.00,100.49
2108.00,100.49
2107.00,100.50
2106.00,100.51
2105.00,100.52
2104.00,100.51
2103.00,100.50
2102.00,100.49
2101.00,100.49
2100.00,100.49
2099.00,100.50
2098.00,100.50
2097.00,100.49
2096.00,100.48
2095.00,100.48
2094.00,100.49
2093.00,100.50
2092.00,100.51
2091.00,100.52
2090.00,100.52
2089.00,100.53
2088.00,100.53
2087.00,100.53
2086.00,100.52
2085.00,100.51
2084.00,100.51
2083.00,100.51
2082.00,100.51
2081.00,100.52
2080.00,100.52
2079.00,100.52
2078.00,100.52
2077.00,100.52
2076.00,100.52
2075.00,100.51
2074.00,100.50
2073.00,100.50
2072.00,100.51
2071.00,100.52
2070.00,100.52
2069.00,100.51
2068.00,100.51
2067.00,100.51
2066.00,100.52
2065.00,100.53
2064.00,100.52
2063.00,100.51
2062.00,100.51
2061.00,100.50
2060.00,100.51
2059.00,100.52
2058.00,100.53
2057.00,100.52
2056.00,100.52
2055.00,100.51
2054.00,100.52
2053.00,100.53
2052.00,100.54
2051.00,100.54
2050.00,100.54
2049.00,100.54
2048.00,100.54
2047.00,100.54
2046.00,100.54
2045.00,100.54
2044.00,100.54
2043.00,100.55
2042.00,100.56
2041.00,100.57
2040.00,100.57
2039.00,100.57
2038.00,100.57
2037.00,100.56
2036.00,100.54
2035.00,100.52
2034.00,100.51
2033.00,100.51
2032.00,100.51
2031.00,100.51
2030.00,100.52
2029.00,100.52
2028.00,100.52
2027.00,100.51
2026.00,100.51
2025.00,100.51
2024.00,100.52
2023.00,100.53
2022.00,100.53
2021.00,100.53
2020.00,100.53
2019.00,100.54
2018.00,100.54
2017.00,100.55
2016.00,100.54
2015.00,100.54
2014.00,100.55
2013.00,100.55
2012.00,100.55
2011.00,100.54
2010.00,100.53
2009.00,100.51
2008.00,100.50
2007.00,100.51
2006.00,100.52
2005.00,100.54
2004.00,100.57
2003.00,100.58
2002.00,100.59
2001.00,100.58
2000.00,100.55
1999.00,100.53
1998.00,100.51
1997.00,100.50
1996.00,100.51
1995.00,100.52
1994.00,100.53
1993.00,100.54
1992.00,100.55
1991.00,100.56
1990.00,100.56
1989.00,100.57
1988.00,100.57
1987.00,100.56
1986.00,100.54
1985.00,100.53
1984.00,100.53
1983.00,100.53
1982.00,100.52
1981.00,100.52
1980.00,100.52
1979.00,100.53
1978.00,100.54
1977.00,100.55
1976.00,100.54
1975.00,100.54
1974.00,100.53
1973.00,100.53
1972.00,100.52
1971.00,100.51
1970.00,100.49
1969.00,100.48
1968.00,100.48
1967.00,100.51
1966.00,100.53
1965.00,100.55
1964.00,100.56
1963.00,100.56
1962.00,100.54
1961.00,100.51
1960.00,100.49
1959.00,100.48
1958.00,100.47
1957.00,100.47
1956.00,100.48
1955.00,100.51
1954.00,100.54
1953.00,100.56
1952.00,100.55
1951.00,100.54
1950.00,100.52
1949.00,100.51
1948.00,100.50
1947.00,100.49
1946.00,100.49
1945.00,100.49
1944.00,100.49
1943.00,100.49
1942.00,100.49
1941.00,100.49
1940.00,100.49
1939.00,100.49
1938.00,100.50
1937.00,100.50
1936.00,100.49
1935.00,100.49
1934.00,100.48
1933.00,100.48
1932.00,100.48
1931.00,100.47
1930.00,100.47
1929.00,100.48
1928.00,100.48
1927.00,100.48
1926.00,100.47
1925.00,100.47
1924.00,100.47
1923.00,100.47
1922.00,100.48
1921.00,100.48
1920.00,100.48
1919.00,100.48
1918.00,100.47
1917.00,100.47
1916.00,100.47
1915.00,100.47
1914.00,100.48
1913.00,100.48
1912.00,100.48
1911.00,100.47
1910.00,100.47
1909.00,100.47
1908.00,100.48
1907.00,100.48
1906.00,100.48
1905.00,100.47
1904.00,100.47
1903.00,100.46
1902.00,100.45
1901.00,100.45
1900.00,100.46
1899.00,100.46
1898.00,100.47
1897.00,100.47
1896.00,100.47
1895.00,100.47
1894.00,100.47
1893.00,100.47
1892.00,100.47
1891.00,100.47
1890.00,100.47
1889.00,100.47
1888.00,100.47
1887.00,100.47
1886.00,100.46
1885.00,100.46
1884.00,100.45
1883.00,100.45
1882.00,100.45
1881.00,100.45
1880.00,100.45
1879.00,100.44
1878.00,100.44
1877.00,100.44
1876.00,100.44
1875.00,100.44
1874.00,100.44
1873.00,100.44
1872.00,100.44
1871.00,100.45
1870.00,100.45
1869.00,100.46
1868.00,100.46
1867.00,100.46
1866.00,100.46
1865.00,100.45
1864.00,100.44
1863.00,100.44
1862.00,100.44
1861.00,100.43
1860.00,100.43
1859.00,100.43
1858.00,100.43
1857.00,100.44
1856.00,100.45
1855.00,100.45
1854.00,100.45
1853.00,100.45
1852.00,100.45
1851.00,100.45
1850.00,100.45
1849.00,100.45
1848.00,100.44
1847.00,100.43
1846.00,100.42
1845.00,100.41
1844.00,100.42
1843.00,100.43
1842.00,100.45
1841.00,100.45
1840.00,100.45
1839.00,100.45
1838.00,100.45
1837.00,100.45
1836.00,100.44
1835.00,100.44
1834.00,100.43
1833.00,100.42
1832.00,100.42
1831.00,100.42
1830.00,100.42
1829.00,100.44
1828.00,100.44
1827.00,100.44
1826.00,100.44
1825.00,100.44
1824.00,100.44
1823.00,100.43
1822.00,100.43
1821.00,100.43
1820.00,100.43
1819.00,100.43
1818.00,100.43
1817.00,100.43
1816.00,100.42
1815.00,100.41
1814.00,100.41
1813.00,100.41
1812.00,100.41
1811.00,100.41
1810.00,100.41
1809.00,100.41
1808.00,100.41
1807.00,100.41
1806.00,100.41
1805.00,100.41
1804.00,100.41
1803.00,100.41
1802.00,100.41
1801.00,100.40
1800.00,100.40
1799.00,100.41
1798.00,100.41
1797.00,100.41
1796.00,100.42
1795.00,100.42
1794.00,100.42
1793.00,100.41
1792.00,100.41
1791.00,100.42
1790.00,100.41
1789.00,100.41
1788.00,100.41
1787.00,100.41
1786.00,100.40
1785.00,100.40
1784.00,100.40
1783.00,100.40
1782.00,100.39
1781.00,100.40
1780.00,100.40
1779.00,100.40
1778.00,100.40
1777.00,100.39
1776.00,100.39
1775.00,100.39
1774.00,100.38
1773.00,100.38
1772.00,100.38
1771.00,100.38
1770.00,100.39
1769.00,100.39
1768.00,100.39
1767.00,100.39
1766.00,100.39
1765.00,100.39
1764.00,100.39
1763.00,100.39
1762.00,100.39
1761.00,100.39
1760.00,100.40
1759.00,100.40
1758.00,100.41
1757.00,100.41
1756.00,100.42
1755.00,100.42
1754.00,100.41
1753.00,100.40
1752.00,100.40
1751.00,100.39
1750.00,100.40
1749.00,100.41
1748.00,100.42
1747.00,100.43
1746.00,100.43
1745.00,100.43
1744.00,100.44
1743.00,100.44
1742.00,100.44
1741.00,100.45
1740.00,100.45
1739.00,100.44
1738.00,100.44
1737.00,100.44
1736.00,100.44
1735.00,100.43
1734.00,100.42
1733.00,100.41
1732.00,100.42
1731.00,100.42
1730.00,100.42
1729.00,100.42
1728.00,100.43
1727.00,100.43
1726.00,100.43
1725.00,100.43
1724.00,100.43
1723.00,100.43
1722.00,100.43
1721.00,100.42
1720.00,100.42
1719.00,100.41
1718.00,100.41
1717.00,100.41
1716.00,100.41
1715.00,100.41
1714.00,100.41
1713.00,100.41
1712.00,100.41
1711.00,100.41
1710.00,100.40
1709.00,100.40
1708.00,100.40
1707.00,100.40
1706.00,100.40
1705.00,100.41
1704.00,100.42
1703.00,100.43
1702.00,100.44
1701.00,100.44
1700.00,100.43
1699.00,100.42
1698.00,100.41
1697.00,100.41
1696.00,100.41
1695.00,100.41
1694.00,100.41
1693.00,100.40
1692.00,100.40
1691.00,100.39
1690.00,100.39
1689.00,100.39
1688.00,100.40
1687.00,100.41
1686.00,100.41
1685.00,100.40
1684.00,100.40
1683.00,100.40
1682.00,100.40
1681.00,100.40
1680.00,100.40
1679.00,100.40
1678.00,100.40
1677.00,100.40
1676.00,100.39
1675.00,100.38
1674.00,100.38
1673.00,100.38
1672.00,100.38
1671.00,100.38
1670.00,100.39
1669.00,100.40
1668.00,100.41
1667.00,100.41
1666.00,100.42
1665.00,100.42
1664.00,100.43
1663.00,100.43
1662.00,100.43
1661.00,100.43
1660.00,100.43
1659.00,100.42
1658.00,100.42
1657.00,100.42
1656.00,100.43
1655.00,100.45
1654.00,100.45
1653.00,100.45
1652.00,100.44
1651.00,100.43
1650.00,100.43
1649.00,100.43
1648.00,100.43
1647.00,100.44
1646.00,100.43
1645.00,100.43
1644.00,100.42
1643.00,100.42
1642.00,100.41
1641.00,100.41
1640.00,100.41
1639.00,100.41
1638.00,100.41
1637.00,100.40
1636.00,100.40
1635.00,100.39
1634.00,100.38
1633.00,100.38
1632.00,100.39
1631.00,100.39
1630.00,100.39
1629.00,100.39
1628.00,100.38
1627.00,100.38
1626.00,100.38
1625.00,100.38
1624.00,100.39
1623.00,100.39
1622.00,100.40
1621.00,100.39
1620.00,100.39
1619.00,100.39
1618.00,100.39
1617.00,100.39
1616.00,100.39
1615.00,100.39
1614.00,100.38
1613.00,100.38
1612.00,100.39
1611.00,100.39
1610.00,100.39
1609.00,100.40
1608.00,100.40
1607.00,100.41
1606.00,100.41
1605.00,100.41
1604.00,100.41
1603.00,100.41
1602.00,100.42
1601.00,100.42
1600.00,100.42
1599.00,100.42
1598.00,100.42
1597.00,100.41
1596.00,100.41
1595.00,100.41
1594.00,100.41
1593.00,100.41
1592.00,100.40
1591.00,100.41
1590.00,100.41
1589.00,100.41
1588.00,100.41
1587.00,100.40
1586.00,100.39
1585.00,100.39
1584.00,100.39
1583.00,100.39
1582.00,100.39
1581.00,100.39
1580.00,100.38
1579.00,100.38
1578.00,100.38
1577.00,100.39
1576.00,100.39
1575.00,100.39
1574.00,100.39
1573.00,100.39
1572.00,100.39
1571.00,100.39
1570.00,100.39
1569.00,100.39
1568.00,100.39
1567.00,100.39
1566.00,100.39
1565.00,100.39
1564.00,100.40
1563.00,100.40
1562.00,100.40
1561.00,100.40
1560.00,100.39
1559.00,100.38
1558.00,100.40
1557.00,100.40
1556.00,100.41
1555.00,100.41
1554.00,100.41
1553.00,100.40
1552.00,100.39
1551.00,100.39
1550.00,100.40
1549.00,100.41
1548.00,100.41
1547.00,100.41
1546.00,100.41
1545.00,100.41
1544.00,100.41
1543.00,100.41
1542.00,100.42
1541.00,100.41
1540.00,100.42
1539.00,100.42
1538.00,100.42
1537.00,100.41
1536.00,100.40
1535.00,100.39
1534.00,100.39
1533.00,100.38
1532.00,100.38
1531.00,100.38
1530.00,100.38
1529.00,100.38
1528.00,100.38
1527.00,100.38
1526.00,100.38
1525.00,100.38
1524.00,100.38
1523.00,100.38
1522.00,100.38
1521.00,100.39
1520.00,100.40
1519.00,100.40
1518.00,100.39
1517.00,100.39
1516.00,100.40
1515.00,100.40
1514.00,100.40
1513.00,100.40
1512.00,100.40
1511.00,100.40
1510.00,100.40
1509.00,100.40
1508.00,100.40
1507.00,100.40
1506.00,100.41
1505.00,100.42
1504.00,100.42
1503.00,100.42
1502.00,100.41
1501.00,100.41
1500.00,100.41
1499.00,100.41
1498.00,100.40
1497.00,100.39
1496.00,100.38
1495.00,100.37
1494.00,100.36
1493.00,100.35
1492.00,100.33
1491.00,100.32
1490.00,100.33
1489.00,100.34
1488.00,100.34
1487.00,100.34
1486.00,100.34
1485.00,100.33
1484.00,100.33
1483.00,100.33
1482.00,100.33
1481.00,100.33
1480.00,100.33
1479.00,100.33
1478.00,100.33
1477.00,100.33
1476.00,100.33
1475.00,100.34
1474.00,100.34
1473.00,100.34
1472.00,100.34
1471.00,100.34
1470.00,100.34
1469.00,100.34
1468.00,100.34
1467.00,100.34
1466.00,100.34
1465.00,100.34
1464.00,100.34
1463.00,100.34
1462.00,100.34
1461.00,100.35
1460.00,100.36
1459.00,100.36
1458.00,100.37
1457.00,100.36
1456.00,100.35
1455.00,100.34
1454.00,100.33
1453.00,100.33
1452.00,100.32
1451.00,100.32
1450.00,100.31
1449.00,100.31
1448.00,100.31
1447.00,100.31
1446.00,100.31
1445.00,100.31
1444.00,100.31
1443.00,100.31
1442.00,100.31
1441.00,100.31
1440.00,100.32
1439.00,100.32
1438.00,100.31
1437.00,100.31
1436.00,100.31
1435.00,100.31
1434.00,100.31
1433.00,100.32
1432.00,100.31
1431.00,100.31
1430.00,100.30
1429.00,100.30
1428.00,100.30
1427.00,100.30
1426.00,100.30
1425.00,100.30
1424.00,100.29
1423.00,100.29
1422.00,100.28
1421.00,100.28
1420.00,100.26
1419.00,100.25
1418.00,100.24
1417.00,100.23
1416.00,100.22
1415.00,100.21
1414.00,100.19
1413.00,100.18
1412.00,100.16
1411.00,100.15
1410.00,100.15
1409.00,100.14
1408.00,100.13
1407.00,100.13
1406.00,100.12
1405.00,100.12
1404.00,100.13
1403.00,100.14
1402.00,100.15
1401.00,100.16
1400.00,100.16
1399.00,100.17
1398.00,100.16
1397.00,100.15
1396.00,100.13
1395.00,100.10
1394.00,100.09
1393.00,100.11
1392.00,100.14
1391.00,100.17
1390.00,100.18
1389.00,100.19
1388.00,100.19
1387.00,100.18
1386.00,100.18
1385.00,100.17
1384.00,100.17
1383.00,100.17
1382.00,100.17
1381.00,100.17
1380.00,100.18
1379.00,100.18
1378.00,100.19
1377.00,100.19
1376.00,100.20
1375.00,100.21
1374.00,100.22
1373.00,100.23
1372.00,100.24
1371.00,100.25
1370.00,100.25
1369.00,100.26
1368.00,100.27
1367.00,100.28
1366.00,100.28
1365.00,100.28
1364.00,100.28
1363.00,100.29
1362.00,100.29
1361.00,100.30
1360.00,100.31
1359.00,100.31
1358.00,100.32
1357.00,100.32
1356.00,100.32
1355.00,100.33
1354.00,100.33
1353.00,100.33
1352.00,100.34
1351.00,100.34
1350.00,100.34
1349.00,100.34
1348.00,100.34
1347.00,100.34
1346.00,100.34
1345.00,100.35
1344.00,100.35
1343.00,100.34
1342.00,100.34
1341.00,100.33
1340.00,100.33
1339.00,100.33
1338.00,100.33
1337.00,100.33
1336.00,100.33
1335.00,100.33
1334.00,100.33
1333.00,100.34
1332.00,100.34
1331.00,100.34
1330.00,100.34
1329.00,100.34
1328.00,100.34
1327.00,100.33
1326.00,100.33
1325.00,100.33
1324.00,100.33
1323.00,100.33
1322.00,100.33
1321.00,100.33
1320.00,100.33
1319.00,100.33
1318.00,100.33
1317.00,100.33
1316.00,100.33
1315.00,100.33
1314.00,100.32
1313.00,100.32
1312.00,100.32
1311.00,100.32
1310.00,100.32
1309.00,100.32
1308.00,100.32
1307.00,100.33
1306.00,100.33
1305.00,100.33
1304.00,100.34
1303.00,100.34
1302.00,100.34
1301.00,100.34
1300.00,100.34
1299.00,100.34
1298.00,100.34
1297.00,100.34
1296.00,100.34
1295.00,100.34
1294.00,100.33
1293.00,100.33
1292.00,100.33
1291.00,100.33
1290.00,100.33
1289.00,100.33
1288.00,100.33
1287.00,100.33
1286.00,100.33
1285.00,100.33
1284.00,100.33
1283.00,100.33
1282.00,100.34
1281.00,100.34
1280.00,100.35
1279.00,100.35
1278.00,100.35
1277.00,100.35
1276.00,100.35
1275.00,100.34
1274.00,100.33
1273.00,100.32
1272.00,100.31
1271.00,100.31
1270.00,100.30
1269.00,100.29
1268.00,100.29
1267.00,100.28
1266.00,100.27
1265.00,100.27
1264.00,100.26
1263.00,100.26
1262.00,100.25
1261.00,100.25
1260.00,100.24
1259.00,100.24
1258.00,100.23
1257.00,100.23
1256.00,100.22
1255.00,100.22
1254.00,100.22
1253.00,100.23
1252.00,100.23
1251.00,100.23
1250.00,100.23
1249.00,100.23
1248.00,100.24
1247.00,100.24
1246.00,100.25
1245.00,100.25
1244.00,100.25
1243.00,100.24
1242.00,100.23
1241.00,100.23
1240.00,100.24
1239.00,100.25
1238.00,100.25
1237.00,100.25
1236.00,100.25
1235.00,100.25
1234.00,100.25
1233.00,100.25
1232.00,100.24
1231.00,100.24
1230.00,100.24
1229.00,100.25
1228.00,100.25
1227.00,100.25
1226.00,100.26
1225.00,100.27
1224.00,100.28
1223.00,100.29
1222.00,100.29
1221.00,100.30
1220.00,100.31
1219.00,100.33
1218.00,100.34
1217.00,100.35
1216.00,100.36
1215.00,100.36
1214.00,100.37
1213.00,100.38
1212.00,100.39
1211.00,100.39
1210.00,100.39
1209.00,100.40
1208.00,100.40
1207.00,100.41
1206.00,100.42
1205.00,100.42
1204.00,100.43
1203.00,100.43
1202.00,100.43
1201.00,100.43
1200.00,100.44
1199.00,100.44
1198.00,100.45
1197.00,100.45
1196.00,100.45
1195.00,100.45
1194.00,100.44
1193.00,100.44
1192.00,100.45
1191.00,100.45
1190.00,100.46
1189.00,100.47
1188.00,100.48
1187.00,100.48
1186.00,100.49
1185.00,100.49
1184.00,100.49
1183.00,100.50
1182.00,100.50
1181.00,100.50
1180.00,100.51
1179.00,100.51
1178.00,100.52
1177.00,100.52
1176.00,100.52
1175.00,100.53
1174.00,100.54
1173.00,100.55
1172.00,100.55
1171.00,100.56
1170.00,100.56
1169.00,100.56
1168.00,100.56
1167.00,100.56
1166.00,100.55
1165.00,100.55
1164.00,100.55
1163.00,100.56
1162.00,100.56
1161.00,100.56
1160.00,100.55
1159.00,100.55
1158.00,100.55
1157.00,100.55
1156.00,100.55
1155.00,100.56
1154.00,100.56
1153.00,100.56
1152.00,100.55
1151.00,100.55
1150.00,100.55
1149.00,100.55
1148.00,100.55
1147.00,100.55
1146.00,100.55
1145.00,100.56
1144.00,100.56
1143.00,100.56
1142.00,100.57
1141.00,100.57
1140.00,100.57
1139.00,100.56
1138.00,100.56
1137.00,100.56
1136.00,100.56
1135.00,100.57
1134.00,100.58
1133.00,100.58
1132.00,100.58
1131.00,100.58
1130.00,100.58
1129.00,100.59
1128.00,100.59
1127.00,100.58
1126.00,100.57
1125.00,100.56
1124.00,100.56
1123.00,100.56
1122.00,100.55
1121.00,100.54
1120.00,100.53
1119.00,100.52
1118.00,100.52
1117.00,100.52
1116.00,100.51
1115.00,100.49
1114.00,100.48
1113.00,100.46
1112.00,100.45
1111.00,100.45
1110.00,100.44
1109.00,100.44
1108.00,100.43
1107.00,100.41
1106.00,100.40
1105.00,100.38
1104.00,100.37
1103.00,100.36
1102.00,100.35
1101.00,100.33
1100.00,100.33
1099.00,100.32
1098.00,100.32
1097.00,100.31
1096.00,100.30
1095.00,100.29
1094.00,100.28
1093.00,100.26
1092.00,100.24
1091.00,100.21
1090.00,100.17
1089.00,100.14
1088.00,100.11
1087.00,100.10
1086.00,100.08
1085.00,100.06
1084.00,100.04
1083.00,100.01
1082.00,99.98
1081.00,99.95
1080.00,99.93
1079.00,99.91
1078.00,99.89
1077.00,99.86
1076.00,99.84
1075.00,99.83
1074.00,99.84
1073.00,99.86
1072.00,99.88
1071.00,99.89
1070.00,99.88
1069.00,99.84
1068.00,99.80
1067.00,99.76
1066.00,99.76
1065.00,99.78
1064.00,99.83
1063.00,99.86
1062.00,99.88
1061.00,99.87
1060.00,99.84
1059.00,99.81
1058.00,99.78
1057.00,99.77
1056.00,99.77
1055.00,99.78
1054.00,99.79
1053.00,99.80
1052.00,99.81
1051.00,99.82
1050.00,99.82
1049.00,99.82
1048.00,99.82
1047.00,99.81
1046.00,99.81
1045.00,99.82
1044.00,99.83
1043.00,99.84
1042.00,99.85
1041.00,99.87
1040.00,99.88
1039.00,99.89
1038.00,99.91
1037.00,99.95
1036.00,100.00
1035.00,100.04
1034.00,100.08
1033.00,100.10
1032.00,100.11
1031.00,100.12
1030.00,100.11
1029.00,100.09
1028.00,100.08
1027.00,100.10
1026.00,100.14
1025.00,100.18
1024.00,100.22
1023.00,100.26
1022.00,100.28
1021.00,100.30
1020.00,100.32
1019.00,100.34
1018.00,100.36
1017.00,100.36
1016.00,100.36
1015.00,100.36
1014.00,100.35
1013.00,100.34
1012.00,100.33
1011.00,100.31
1010.00,100.30
1009.00,100.29
1008.00,100.29
1007.00,100.28
1006.00,100.28
1005.00,100.29
1004.00,100.31
1003.00,100.33
1002.00,100.34
1001.00,100.34
1000.00,100.34
999.00,100.34
998.00,100.34
997.00,100.34
996.00,100.34
995.00,100.35
994.00,100.35
993.00,100.35
992.00,100.35
991.00,100.36
990.00,100.37
989.00,100.38
988.00,100.38
987.00,100.37
986.00,100.36
985.00,100.35
984.00,100.35
983.00,100.36
982.00,100.37
981.00,100.38
980.00,100.38
979.00,100.38
978.00,100.38
977.00,100.38
976.00,100.38
975.00,100.37
974.00,100.37
973.00,100.36
972.00,100.36
971.00,100.36
970.00,100.36
969.00,100.36
968.00,100.36
967.00,100.37
966.00,100.38
965.00,100.38
964.00,100.38
963.00,100.38
962.00,100.37
961.00,100.37
960.00,100.37
959.00,100.37
958.00,100.37
957.00,100.38
956.00,100.38
955.00,100.39
954.00,100.39
953.00,100.38
952.00,100.38
951.00,100.38
950.00,100.38
949.00,100.38
948.00,100.37
947.00,100.37
946.00,100.38
945.00,100.39
944.00,100.40
943.00,100.40
942.00,100.40
941.00,100.39
940.00,100.39
939.00,100.38
938.00,100.38
937.00,100.38
936.00,100.38
935.00,100.38
934.00,100.38
933.00,100.38
932.00,100.38
931.00,100.38
930.00,100.38
929.00,100.39
928.00,100.39
927.00,100.40
926.00,100.40
925.00,100.39
924.00,100.39
923.00,100.40
922.00,100.40
921.00,100.40
920.00,100.40
919.00,100.39
918.00,100.39
917.00,100.38
916.00,100.37
915.00,100.37
914.00,100.36
913.00,100.37
912.00,100.37
911.00,100.37
910.00,100.37
909.00,100.37
908.00,100.36
907.00,100.35
906.00,100.34
905.00,100.34
904.00,100.35
903.00,100.35
902.00,100.35
901.00,100.34
900.00,100.33
899.00,100.32
898.00,100.32
897.00,100.32
896.00,100.32
895.00,100.32
894.00,100.32
893.00,100.31
892.00,100.31
891.00,100.30
890.00,100.30
889.00,100.31
888.00,100.31
887.00,100.32
886.00,100.33
885.00,100.34
884.00,100.34
883.00,100.34
882.00,100.33
881.00,100.33
880.00,100.32
879.00,100.31
878.00,100.31
877.00,100.32
876.00,100.32
875.00,100.32
874.00,100.32
873.00,100.32
872.00,100.32
871.00,100.32
870.00,100.32
869.00,100.33
868.00,100.33
867.00,100.33
866.00,100.33
865.00,100.34
864.00,100.34
863.00,100.34
862.00,100.35
861.00,100.36
860.00,100.38
859.00,100.38
858.00,100.38
857.00,100.38
856.00,100.38
855.00,100.38
854.00,100.37
853.00,100.37
852.00,100.37
851.00,100.38
850.00,100.39
849.00,100.40
848.00,100.40
847.00,100.41
846.00,100.43
845.00,100.44
844.00,100.44
843.00,100.44
842.00,100.44
841.00,100.44
840.00,100.43
839.00,100.42
838.00,100.42
837.00,100.43
836.00,100.45
835.00,100.46
834.00,100.46
833.00,100.45
832.00,100.43
831.00,100.42
830.00,100.42
829.00,100.42
828.00,100.42
827.00,100.42
826.00,100.43
825.00,100.44
824.00,100.45
823.00,100.45
822.00,100.44
821.00,100.43
820.00,100.42
819.00,100.42
818.00,100.41
817.00,100.42
816.00,100.43
815.00,100.43
814.00,100.43
813.00,100.42
812.00,100.41
811.00,100.41
810.00,100.42
809.00,100.43
808.00,100.44
807.00,100.44
806.00,100.44
805.00,100.44
804.00,100.44
803.00,100.43
802.00,100.41
801.00,100.40
800.00,100.42
799.00,100.44
798.00,100.45
797.00,100.45
796.00,100.46
795.00,100.46
794.00,100.46
793.00,100.45
792.00,100.45
791.00,100.44
790.00,100.43
789.00,100.42
788.00,100.42
787.00,100.44
786.00,100.46
785.00,100.47
784.00,100.48
783.00,100.48
782.00,100.47
781.00,100.45
780.00,100.45
779.00,100.45
778.00,100.45
777.00,100.45
776.00,100.46
775.00,100.45
774.00,100.44
773.00,100.43
772.00,100.42
771.00,100.42
770.00,100.43
769.00,100.44
768.00,100.45
767.00,100.47
766.00,100.48
765.00,100.48
764.00,100.47
763.00,100.46
762.00,100.46
761.00,100.46
760.00,100.46
759.00,100.46
758.00,100.45
757.00,100.45
756.00,100.44
755.00,100.43
754.00,100.44
753.00,100.44
752.00,100.45
751.00,100.45
750.00,100.45
749.00,100.45
748.00,100.45
747.00,100.46
746.00,100.47
745.00,100.46
744.00,100.46
743.00,100.47
742.00,100.48
741.00,100.49
740.00,100.49
739.00,100.49
738.00,100.49
737.00,100.48
736.00,100.47
735.00,100.46
734.00,100.45
733.00,100.46
732.00,100.48
731.00,100.50
730.00,100.51
729.00,100.51
728.00,100.51
727.00,100.52
726.00,100.53
725.00,100.53
724.00,100.53
723.00,100.52
722.00,100.50
721.00,100.49
720.00,100.46
719.00,100.45
718.00,100.45
717.00,100.46
716.00,100.47
715.00,100.48
714.00,100.48
713.00,100.47
712.00,100.46
711.00,100.46
710.00,100.47
709.00,100.48
708.00,100.49
707.00,100.49
706.00,100.49
705.00,100.49
704.00,100.48
703.00,100.47
702.00,100.47
701.00,100.47
700.00,100.47
699.00,100.46
698.00,100.46
697.00,100.46
696.00,100.47
695.00,100.49
694.00,100.50
693.00,100.50
692.00,100.48
691.00,100.47
690.00,100.47
689.00,100.49
688.00,100.51
687.00,100.51
686.00,100.50
685.00,100.47
684.00,100.44
683.00,100.43
682.00,100.44
681.00,100.45
680.00,100.46
679.00,100.48
678.00,100.52
677.00,100.54
676.00,100.54
675.00,100.53
674.00,100.53
673.00,100.53
672.00,100.53
671.00,100.55
670.00,100.59
669.00,100.64
668.00,100.67
667.00,100.62
666.00,100.55
665.00,100.50
664.00,100.47
663.00,100.47
662.00,100.48
661.00,100.51
660.00,100.51
659.00,100.53
658.00,100.44
657.00,100.39
656.00,100.39
655.00,100.38
654.00,100.41
653.00,100.45
652.00,100.47
651.00,100.44
650.00,100.40
