Created as New Dataset,Sample 302 By iruser Date Friday, March 13 2026
cm-1,%T
4200.00,99.90
4199.00,99.89
4198.00,99.89
4197.00,99.88
4196.00,99.88
4195.00,99.89
4194.00,99.89
4193.00,99.90
4192.00,99.90
4191.00,99.90
4190.00,99.89
4189.00,99.89
4188.00,99.89
4187.00,99.89
4186.00,99.89
4185.00,99.89
4184.00,99.89
4183.00,99.89
4182.00,99.88
4181.00,99.88
4180.00,99.88
4179.00,99.88
4178.00,99.89
4177.00,99.89
4176.00,99.90
4175.00,99.91
4174.00,99.91
4173.00,99.90
4172.00,99.89
4171.00,99.89
4170.00,99.88
4169.00,99.88
4168.00,99.88
4167.00,99.88
4166.00,99.87
4165.00,99.87
4164.00,99.86
4163.00,99.86
4162.00,99.86
4161.00,99.86
4160.00,99.86
4159.00,99.86
4158.00,99.86
4157.00,99.86
4156.00,99.86
4155.00,99.85
4154.00,99.85
4153.00,99.85
4152.00,99.85
4151.00,99.85
4150.00,99.85
4149.00,99.85
4148.00,99.85
4147.00,99.85
4146.00,99.85
4145.00,99.85
4144.00,99.85
4143.00,99.84
4142.00,99.84
4141.00,99.83
4140.00,99.82
4139.00,99.82
4138.00,99.82
4137.00,99.82
4136.00,99.82
4135.00,99.82
4134.00,99.82
4133.00,99.82
4132.00,99.83
4131.00,99.83
4130.00,99.83
4129.00,99.83
4128.00,99.82
4127.00,99.81
4126.00,99.81
4125.00,99.80
4124.00,99.80
4123.00,99.80
4122.00,99.80
4121.00,99.80
4120.00,99.80
4119.00,99.80
4118.00,99.79
4117.00,99.79
4116.00,99.79
4115.00,99.78
4114.00,99.78
4113.00,99.78
4112.00,99.78
4111.00,99.78
4110.00,99.77
4109.00,99.77
4108.00,99.77
4107.00,99.77
4106.00,99.77
4105.00,99.77
4104.00,99.78
4103.00,99.77
4102.00,99.77
4101.00,99.76
4100.00,99.75
4099.00,99.74
4098.00,99.74
4097.00,99.73
4096.00,99.73
4095.00,99.73
4094.00,99.73
4093.00,99.73
4092.00,99.73
4091.00,99.73
4090.00,99.73
4089.00,99.73
4088.00,99.73
4087.00,99.72
4086.00,99.72
4085.00,99.72
4084.00,99.72
4083.00,99.72
4082.00,99.72
4081.00,99.71
4080.00,99.71
4079.00,99.71
4078.00,99.71
4077.00,99.71
4076.00,99.71
4075.00,99.70
4074.00,99.69
4073.00,99.68
4072.00,99.68
4071.00,99.69
4070.00,99.69
4069.00,99.69
4068.00,99.69
4067.00,99.68
4066.00,99.67
4065.00,99.67
4064.00,99.66
4063.00,99.66
4062.00,99.66
4061.00,99.66
4060.00,99.65
4059.00,99.65
4058.00,99.64
4057.00,99.64
4056.00,99.64
4055.00,99.64
4054.00,99.64
4053.00,99.64
4052.00,99.64
4051.00,99.63
4050.00,99.62
4049.00,99.62
4048.00,99.62
4047.00,99.61
4046.00,99.61
4045.00,99.61
4044.00,99.61
4043.00,99.61
4042.00,99.61
4041.00,99.60
4040.00,99.60
4039.00,99.60
4038.00,99.59
4037.00,99.59
4036.00,99.59
4035.00,99.59
4034.00,99.59
4033.00,99.59
4032.00,99.59
4031.00,99.59
4030.00,99.58
4029.00,99.57
4028.00,99.57
4027.00,99.56
4026.00,99.56
4025.00,99.56
4024.00,99.56
4023.00,99.56
4022.00,99.56
4021.00,99.56
4020.00,99.56
4019.00,99.56
4018.00,99.56
4017.00,99.56
4016.00,99.56
4015.00,99.55
4014.00,99.56
4013.00,99.56
4012.00,99.56
4011.00,99.56
4010.00,99.56
4009.00,99.56
4008.00,99.56
4007.00,99.56
4006.00,99.56
4005.00,99.55
4004.00,99.55
4003.00,99.55
4002.00,99.55
4001.00,99.54
4000.00,99.54
3999.00,99.54
3998.00,99.54
3997.00,99.54
3996.00,99.54
3995.00,99.55
3994.00,99.55
3993.00,99.55
3992.00,99.55
3991.00,99.55
3990.00,99.56
3989.00,99.56
3988.00,99.56
3987.00,99.56
3986.00,99.56
3985.00,99.55
3984.00,99.56
3983.00,99.56
3982.00,99.56
3981.00,99.57
3980.00,99.56
3979.00,99.56
3978.00,99.56
3977.00,99.56
3976.00,99.56
3975.00,99.56
3974.00,99.55
3973.00,99.55
3972.00,99.55
3971.00,99.55
3970.00,99.55
3969.00,99.55
3968.00,99.55
3967.00,99.56
3966.00,99.56
3965.00,99.56
3964.00,99.57
3963.00,99.57
3962.00,99.57
3961.00,99.57
3960.00,99.57
3959.00,99.56
3958.00,99.56
3957.00,99.56
3956.00,99.56
3955.00,99.56
3954.00,99.57
3953.00,99.57
3952.00,99.57
3951.00,99.57
3950.00,99.57
3949.00,99.57
3948.00,99.56
3947.00,99.57
3946.00,99.57
3945.00,99.58
3944.00,99.58
3943.00,99.58
3942.00,99.59
3941.00,99.59
3940.00,99.59
3939.00,99.59
3938.00,99.58
3937.00,99.58
3936.00,99.57
3935.00,99.57
3934.00,99.57
3933.00,99.58
3932.00,99.58
3931.00,99.58
3930.00,99.58
3929.00,99.57
3928.00,99.58
3927.00,99.58
3926.00,99.59
3925.00,99.59
3924.00,99.60
3923.00,99.60
3922.00,99.60
3921.00,99.60
3920.00,99.59
3919.00,99.59
3918.00,99.59
3917.00,99.60
3916.00,99.61
3915.00,99.62
3914.00,99.63
3913.00,99.63
3912.00,99.63
3911.00,99.62
3910.00,99.61
3909.00,99.61
3908.00,99.60
3907.00,99.59
3906.00,99.58
3905.00,99.57
3904.00,99.57
3903.00,99.56
3902.00,99.57
3901.00,99.58
3900.00,99.60
3899.00,99.61
3898.00,99.62
3897.00,99.62
3896.00,99.62
3895.00,99.62
3894.00,99.62
3893.00,99.62
3892.00,99.62
3891.00,99.62
3890.00,99.61
3889.00,99.61
3888.00,99.62
3887.00,99.62
3886.00,99.62
3885.00,99.61
3884.00,99.61
3883.00,99.62
3882.00,99.63
3881.00,99.63
3880.00,99.62
3879.00,99.62
3878.00,99.62
3877.00,99.63
3876.00,99.63
3875.00,99.62
3874.00,99.61
3873.00,99.61
3872.00,99.61
3871.00,99.60
3870.00,99.60
3869.00,99.59
3868.00,99.59
3867.00,99.60
3866.00,99.60
3865.00,99.61
3864.00,99.61
3863.00,99.62
3862.00,99.62
3861.00,99.63
3860.00,99.63
3859.00,99.62
3858.00,99.62
3857.00,99.61
3856.00,99.62
3855.00,99.62
3854.00,99.62
3853.00,99.61
3852.00,99.61
3851.00,99.62
3850.00,99.63
3849.00,99.64
3848.00,99.64
3847.00,99.63
3846.00,99.63
3845.00,99.63
3844.00,99.62
3843.00,99.62
3842.00,99.61
3841.00,99.61
3840.00,99.60
3839.00,99.60
3838.00,99.61
3837.00,99.61
3836.00,99.62
3835.00,99.62
3834.00,99.63
3833.00,99.63
3832.00,99.63
3831.00,99.64
3830.00,99.64
3829.00,99.64
3828.00,99.64
3827.00,99.63
3826.00,99.62
3825.00,99.61
3824.00,99.60
3823.00,99.60
3822.00,99.60
3821.00,99.59
3820.00,99.58
3819.00,99.59
3818.00,99.61
3817.00,99.62
3816.00,99.63
3815.00,99.63
3814.00,99.64
3813.00,99.64
3812.00,99.64
3811.00,99.63
3810.00,99.63
3809.00,99.63
3808.00,99.63
3807.00,99.62
3806.00,99.61
3805.00,99.61
3804.00,99.61
3803.00,99.61
3802.00,99.60
3801.00,99.59
3800.00,99.59
3799.00,99.60
3798.00,99.61
3797.00,99.61
3796.00,99.61
3795.00,99.62
3794.00,99.63
3793.00,99.63
3792.00,99.64
3791.00,99.64
3790.00,99.63
3789.00,99.63
3788.00,99.62
3787.00,99.62
3786.00,99.62
3785.00,99.62
3784.00,99.61
3783.00,99.60
3782.00,99.60
3781.00,99.60
3780.00,99.60
3779.00,99.60
3778.00,99.60
3777.00,99.60
3776.00,99.60
3775.00,99.59
3774.00,99.58
3773.00,99.57
3772.00,99.57
3771.00,99.56
3770.00,99.55
3769.00,99.55
3768.00,99.55
3767.00,99.56
3766.00,99.56
3765.00,99.56
3764.00,99.56
3763.00,99.55
3762.00,99.55
3761.00,99.55
3760.00,99.54
3759.00,99.53
3758.00,99.52
3757.00,99.51
3756.00,99.50
3755.00,99.49
3754.00,99.48
3753.00,99.47
3752.00,99.46
3751.00,99.46
3750.00,99.46
3749.00,99.45
3748.00,99.46
3747.00,99.47
3746.00,99.47
3745.00,99.47
3744.00,99.46
3743.00,99.46
3742.00,99.46
3741.00,99.46
3740.00,99.44
3739.00,99.43
3738.00,99.41
3737.00,99.40
3736.00,99.40
3735.00,99.41
3734.00,99.42
3733.00,99.43
3732.00,99.44
3731.00,99.43
3730.00,99.43
3729.00,99.42
3728.00,99.41
3727.00,99.41
3726.00,99.41
3725.00,99.42
3724.00,99.42
3723.00,99.42
3722.00,99.42
3721.00,99.41
3720.00,99.41
3719.00,99.40
3718.00,99.39
3717.00,99.37
3716.00,99.36
3715.00,99.34
3714.00,99.33
3713.00,99.32
3712.00,99.31
3711.00,99.30
3710.00,99.29
3709.00,99.29
3708.00,99.28
3707.00,99.28
3706.00,99.27
3705.00,99.26
3704.00,99.25
3703.00,99.24
3702.00,99.23
3701.00,99.21
3700.00,99.20
3699.00,99.18
3698.00,99.17
3697.00,99.15
3696.00,99.13
3695.00,99.10
3694.00,99.08
3693.00,99.06
3692.00,99.05
3691.00,99.03
3690.00,99.00
3689.00,98.97
3688.00,98.94
3687.00,98.92
3686.00,98.90
3685.00,98.87
3684.00,98.84
3683.00,98.81
3682.00,98.78
3681.00,98.74
3680.00,98.70
3679.00,98.66
3678.00,98.63
3677.00,98.59
3676.00,98.53
3675.00,98.48
3674.00,98.44
3673.00,98.42
3672.00,98.39
3671.00,98.35
3670.00,98.30
3669.00,98.24
3668.00,98.20
3667.00,98.15
3666.00,98.10
3665.00,98.05
3664.00,98.00
3663.00,97.94
3662.00,97.88
3661.00,97.81
3660.00,97.75
3659.00,97.68
3658.00,97.61
3657.00,97.53
3656.00,97.44
3655.00,97.35
3654.00,97.27
3653.00,97.19
3652.00,97.10
3651.00,97.01
3650.00,96.92
3649.00,96.82
3648.00,96.73
3647.00,96.65
3646.00,96.58
3645.00,96.51
3644.00,96.44
3643.00,96.36
3642.00,96.27
3641.00,96.17
3640.00,96.08
3639.00,95.99
3638.00,95.89
3637.00,95.79
3636.00,95.69
3635.00,95.58
3634.00,95.48
3633.00,95.37
3632.00,95.28
3631.00,95.18
3630.00,95.06
3629.00,94.93
3628.00,94.80
3627.00,94.69
3626.00,94.60
3625.00,94.50
3624.00,94.40
3623.00,94.30
3622.00,94.19
3621.00,94.07
3620.00,93.93
3619.00,93.79
3618.00,93.66
3617.00,93.54
3616.00,93.42
3615.00,93.31
3614.00,93.19
3613.00,93.07
3612.00,92.95
3611.00,92.83
3610.00,92.70
3609.00,92.56
3608.00,92.41
3607.00,92.28
3606.00,92.14
3605.00,92.01
3604.00,91.88
3603.00,91.75
3602.00,91.61
3601.00,91.47
3600.00,91.32
3599.00,91.18
3598.00,91.04
3597.00,90.90
3596.00,90.76
3595.00,90.61
3594.00,90.45
3593.00,90.29
3592.00,90.14
3591.00,90.00
3590.00,89.84
3589.00,89.68
3588.00,89.51
3587.00,89.34
3586.00,89.18
3585.00,89.03
3584.00,88.89
3583.00,88.74
3582.00,88.58
3581.00,88.43
3580.00,88.27
3579.00,88.10
3578.00,87.94
3577.00,87.77
3576.00,87.60
3575.00,87.43
3574.00,87.26
3573.00,87.08
3572.00,86.91
3571.00,86.74
3570.00,86.56
3569.00,86.38
3568.00,86.18
3567.00,85.99
3566.00,85.80
3565.00,85.62
3564.00,85.46
3563.00,85.30
3562.00,85.13
3561.00,84.96
3560.00,84.78
3559.00,84.61
3558.00,84.43
3557.00,84.26
3556.00,84.08
3555.00,83.90
3554.00,83.72
3553.00,83.53
3552.00,83.34
3551.00,83.15
3550.00,82.98
3549.00,82.80
3548.00,82.62
3547.00,82.44
3546.00,82.25
3545.00,82.06
3544.00,81.88
3543.00,81.69
3542.00,81.51
3541.00,81.33
3540.00,81.15
3539.00,80.97
3538.00,80.78
3537.00,80.59
3536.00,80.40
3535.00,80.22
3534.00,80.04
3533.00,79.85
3532.00,79.67
3531.00,79.48
3530.00,79.29
3529.00,79.10
3528.00,78.91
3527.00,78.72
3526.00,78.53
3525.00,78.35
3524.00,78.16
3523.00,77.97
3522.00,77.78
3521.00,77.60
3520.00,77.43
3519.00,77.25
3518.00,77.06
3517.00,76.88
3516.00,76.70
3515.00,76.51
3514.00,76.32
3513.00,76.14
3512.00,75.95
3511.00,75.77
3510.00,75.58
3509.00,75.40
3508.00,75.21
3507.00,75.03
3506.00,74.85
3505.00,74.66
3504.00,74.48
3503.00,74.29
3502.00,74.11
3501.00,73.93
3500.00,73.75
3499.00,73.57
3498.00,73.39
3497.00,73.21
3496.00,73.02
3495.00,72.84
3494.00,72.66
3493.00,72.48
3492.00,72.30
3491.00,72.13
3490.00,71.95
3489.00,71.77
3488.00,71.59
3487.00,71.41
3486.00,71.23
3485.00,71.04
3484.00,70.87
3483.00,70.69
3482.00,70.51
3481.00,70.33
3480.00,70.16
3479.00,69.99
3478.00,69.82
3477.00,69.66
3476.00,69.48
3475.00,69.31
3474.00,69.14
3473.00,68.96
3472.00,68.78
3471.00,68.60
3470.00,68.43
3469.00,68.25
3468.00,68.07
3467.00,67.90
3466.00,67.74
3465.00,67.58
3464.00,67.41
3463.00,67.24
3462.00,67.07
3461.00,66.90
3460.00,66.74
3459.00,66.57
3458.00,66.40
3457.00,66.23
3456.00,66.07
3455.00,65.91
3454.00,65.75
3453.00,65.58
3452.00,65.42
3451.00,65.26
3450.00,65.09
3449.00,64.93
3448.00,64.76
3447.00,64.59
3446.00,64.43
3445.00,64.28
3444.00,64.12
3443.00,63.96
3442.00,63.80
3441.00,63.64
3440.00,63.47
3439.00,63.31
3438.00,63.15
3437.00,62.99
3436.00,62.83
3435.00,62.68
3434.00,62.53
3433.00,62.38
3432.00,62.22
3431.00,62.08
3430.00,61.93
3429.00,61.78
3428.00,61.64
3427.00,61.50
3426.00,61.35
3425.00,61.20
3424.00,61.06
3423.00,60.91
3422.00,60.76
3421.00,60.62
3420.00,60.47
3419.00,60.33
3418.00,60.18
3417.00,60.04
3416.00,59.89
3415.00,59.75
3414.00,59.61
3413.00,59.47
3412.00,59.34
3411.00,59.21
3410.00,59.08
3409.00,58.95
3408.00,58.82
3407.00,58.69
3406.00,58.56
3405.00,58.42
3404.00,58.28
3403.00,58.14
3402.00,58.01
3401.00,57.88
3400.00,57.76
3399.00,57.64
3398.00,57.52
3397.00,57.39
3396.00,57.27
3395.00,57.14
3394.00,57.02
3393.00,56.90
3392.00,56.78
3391.00,56.67
3390.00,56.55
3389.00,56.44
3388.00,56.34
3387.00,56.23
3386.00,56.13
3385.00,56.02
3384.00,55.91
3383.00,55.80
3382.00,55.70
3381.00,55.59
3380.00,55.49
3379.00,55.38
3378.00,55.28
3377.00,55.18
3376.00,55.08
3375.00,54.99
3374.00,54.89
3373.00,54.79
3372.00,54.69
3371.00,54.60
3370.00,54.50
3369.00,54.41
3368.00,54.32
3367.00,54.24
3366.00,54.16
3365.00,54.08
3364.00,53.99
3363.00,53.91
3362.00,53.83
3361.00,53.75
3360.00,53.67
3359.00,53.59
3358.00,53.51
3357.00,53.44
3356.00,53.36
3355.00,53.29
3354.00,53.21
3353.00,53.14
3352.00,53.06
3351.00,52.99
3350.00,52.93
3349.00,52.86
3348.00,52.80
3347.00,52.74
3346.00,52.68
3345.00,52.62
3344.00,52.55
3343.00,52.49
3342.00,52.43
3341.00,52.37
3340.00,52.32
3339.00,52.26
3338.00,52.20
3337.00,52.15
3336.00,52.09
3335.00,52.04
3334.00,51.99
3333.00,51.95
3332.00,51.90
3331.00,51.86
3330.00,51.82
3329.00,51.77
3328.00,51.72
3327.00,51.67
3326.00,51.62
3325.00,51.57
3324.00,51.53
3323.00,51.49
3322.00,51.45
3321.00,51.42
3320.00,51.38
3319.00,51.34
3318.00,51.30
3317.00,51.26
3316.00,51.23
3315.00,51.19
3314.00,51.16
3313.00,51.13
3312.00,51.10
3311.00,51.06
3310.00,51.02
3309.00,50.99
3308.00,50.95
3307.00,50.92
3306.00,50.90
3305.00,50.88
3304.00,50.85
3303.00,50.83
3302.00,50.81
3301.00,50.78
3300.00,50.76
3299.00,50.73
3298.00,50.71
3297.00,50.68
3296.00,50.66
3295.00,50.64
3294.00,50.63
3293.00,50.61
3292.00,50.59
3291.00,50.57
3290.00,50.56
3289.00,50.54
3288.00,50.53
3287.00,50.51
3286.00,50.50
3285.00,50.49
3284.00,50.48
3283.00,50.46
3282.00,50.45
3281.00,50.44
3280.00,50.44
3279.00,50.43
3278.00,50.43
3277.00,50.43
3276.00,50.42
3275.00,50.41
3274.00,50.41
3273.00,50.40
3272.00,50.40
3271.00,50.40
3270.00,50.41
3269.00,50.41
3268.00,50.42
3267.00,50.42
3266.00,50.43
3265.00,50.43
3264.00,50.44
3263.00,50.45
3262.00,50.46
3261.00,50.48
3260.00,50.49
3259.00,50.51
3258.00,50.53
3257.00,50.55
3256.00,50.57
3255.00,50.59
3254.00,50.61
3253.00,50.63
3252.00,50.65
3251.00,50.68
3250.00,50.70
3249.00,50.73
3248.00,50.75
3247.00,50.79
3246.00,50.82
3245.00,50.86
3244.00,50.90
3243.00,50.94
3242.00,50.98
3241.00,51.02
3240.00,51.06
3239.00,51.10
3238.00,51.15
3237.00,51.19
3236.00,51.24
3235.00,51.29
3234.00,51.34
3233.00,51.40
3232.00,51.45
3231.00,51.51
3230.00,51.57
3229.00,51.63
3228.00,51.69
3227.00,51.75
3226.00,51.81
3225.00,51.88
3224.00,51.95
3223.00,52.02
3222.00,52.10
3221.00,52.17
3220.00,52.24
3219.00,52.32
3218.00,52.40
3217.00,52.48
3216.00,52.57
3215.00,52.66
3214.00,52.75
3213.00,52.84
3212.00,52.92
3211.00,53.01
3210.00,53.10
3209.00,53.20
3208.00,53.29
3207.00,53.39
3206.00,53.50
3205.00,53.60
3204.00,53.70
3203.00,53.80
3202.00,53.91
3201.00,54.02
3200.00,54.13
3199.00,54.24
3198.00,54.35
3197.00,54.46
3196.00,54.58
3195.00,54.70
3194.00,54.82
3193.00,54.94
3192.00,55.05
3191.00,55.17
3190.00,55.29
3189.00,55.42
3188.00,55.55
3187.00,55.68
3186.00,55.82
3185.00,55.95
3184.00,56.08
3183.00,56.21
3182.00,56.35
3181.00,56.49
3180.00,56.63
3179.00,56.77
3178.00,56.92
3177.00,57.06
3176.00,57.20
3175.00,57.35
3174.00,57.49
3173.00,57.64
3172.00,57.79
3171.00,57.94
3170.00,58.09
3169.00,58.24
3168.00,58.40
3167.00,58.55
3166.00,58.71
3165.00,58.86
3164.00,59.02
3163.00,59.18
3162.00,59.33
3161.00,59.50
3160.00,59.66
3159.00,59.83
3158.00,60.00
3157.00,60.17
3156.00,60.34
3155.00,60.51
3154.00,60.68
3153.00,60.85
3152.00,61.02
3151.00,61.20
3150.00,61.37
3149.00,61.54
3148.00,61.72
3147.00,61.90
3146.00,62.08
3145.00,62.25
3144.00,62.43
3143.00,62.60
3142.00,62.78
3141.00,62.96
3140.00,63.14
3139.00,63.32
3138.00,63.51
3137.00,63.70
3136.00,63.88
3135.00,64.07
3134.00,64.25
3133.00,64.43
3132.00,64.61
3131.00,64.79
3130.00,64.97
3129.00,65.16
3128.00,65.35
3127.00,65.54
3126.00,65.73
3125.00,65.92
3124.00,66.11
3123.00,66.29
3122.00,66.47
3121.00,66.66
3120.00,66.85
3119.00,67.04
3118.00,67.24
3117.00,67.43
3116.00,67.62
3115.00,67.81
3114.00,68.01
3113.00,68.20
3112.00,68.39
3111.00,68.58
3110.00,68.77
3109.00,68.96
3108.00,69.16
3107.00,69.35
3106.00,69.54
3105.00,69.73
3104.00,69.92
3103.00,70.11
3102.00,70.30
3101.00,70.49
3100.00,70.67
3099.00,70.86
3098.00,71.05
3097.00,71.24
3096.00,71.44
3095.00,71.63
3094.00,71.82
3093.00,72.00
3092.00,72.19
3091.00,72.38
3090.00,72.57
3089.00,72.76
3088.00,72.95
3087.00,73.14
3086.00,73.33
3085.00,73.50
3084.00,73.68
3083.00,73.87
3082.00,74.05
3081.00,74.23
3080.00,74.41
3079.00,74.59
3078.00,74.78
3077.00,74.97
3076.00,75.16
3075.00,75.35
3074.00,75.53
3073.00,75.71
3072.00,75.89
3071.00,76.07
3070.00,76.24
3069.00,76.41
3068.00,76.59
3067.00,76.76
3066.00,76.94
3065.00,77.12
3064.00,77.29
3063.00,77.47
3062.00,77.65
3061.00,77.81
3060.00,77.98
3059.00,78.15
3058.00,78.31
3057.00,78.48
3056.00,78.65
3055.00,78.82
3054.00,78.99
3053.00,79.15
3052.00,79.32
3051.00,79.48
3050.00,79.64
3049.00,79.80
3048.00,79.96
3047.00,80.11
3046.00,80.27
3045.00,80.42
3044.00,80.58
3043.00,80.74
3042.00,80.89
3041.00,81.05
3040.00,81.21
3039.00,81.36
3038.00,81.51
3037.00,81.65
3036.00,81.79
3035.00,81.92
3034.00,82.07
3033.00,82.21
3032.00,82.35
3031.00,82.49
3030.00,82.63
3029.00,82.77
3028.00,82.90
3027.00,83.03
3026.00,83.16
3025.00,83.29
3024.00,83.42
3023.00,83.54
3022.00,83.66
3021.00,83.77
3020.00,83.89
3019.00,84.00
3018.00,84.12
3017.00,84.22
3016.00,84.33
3015.00,84.44
3014.00,84.54
3013.00,84.65
3012.00,84.74
3011.00,84.83
3010.00,84.92
3009.00,85.01
3008.00,85.09
3007.00,85.17
3006.00,85.24
3005.00,85.30
3004.00,85.36
3003.00,85.42
3002.00,85.47
3001.00,85.52
3000.00,85.56
2999.00,85.60
2998.00,85.63
2997.00,85.66
2996.00,85.67
2995.00,85.68
2994.00,85.68
2993.00,85.68
2992.00,85.67
2991.00,85.65
2990.00,85.63
2989.00,85.61
2988.00,85.58
2987.00,85.54
2986.00,85.50
2985.00,85.45
2984.00,85.40
2983.00,85.35
2982.00,85.29
2981.00,85.22
2980.00,85.16
2979.00,85.09
2978.00,85.02
2977.00,84.95
2976.00,84.88
2975.00,84.80
2974.00,84.72
2973.00,84.64
2972.00,84.56
2971.00,84.48
2970.00,84.40
2969.00,84.32
2968.00,84.24
2967.00,84.14
2966.00,84.04
2965.00,83.94
2964.00,83.83
2963.00,83.72
2962.00,83.60
2961.00,83.47
2960.00,83.33
2959.00,83.18
2958.00,83.03
2957.00,82.87
2956.00,82.71
2955.00,82.54
2954.00,82.37
2953.00,82.19
2952.00,82.00
2951.00,81.82
2950.00,81.63
2949.00,81.44
2948.00,81.26
2947.00,81.08
2946.00,80.91
2945.00,80.74
2944.00,80.57
2943.00,80.41
2942.00,80.26
2941.00,80.12
2940.00,79.99
2939.00,79.87
2938.00,79.77
2937.00,79.68
2936.00,79.61
2935.00,79.55
2934.00,79.50
2933.00,79.47
2932.00,79.45
2931.00,79.45
2930.00,79.47
2929.00,79.49
2928.00,79.53
2927.00,79.57
2926.00,79.62
2925.00,79.68
2924.00,79.75
2923.00,79.83
2922.00,79.92
2921.00,80.00
2920.00,80.09
2919.00,80.18
2918.00,80.26
2917.00,80.35
2916.00,80.43
2915.00,80.51
2914.00,80.59
2913.00,80.66
2912.00,80.73
2911.00,80.79
2910.00,80.84
2909.00,80.89
2908.00,80.93
2907.00,80.97
2906.00,81.00
2905.00,81.03
2904.00,81.05
2903.00,81.07
2902.00,81.09
2901.00,81.10
2900.00,81.11
2899.00,81.12
2898.00,81.12
2897.00,81.13
2896.00,81.14
2895.00,81.15
2894.00,81.16
2893.00,81.17
2892.00,81.18
2891.00,81.19
2890.00,81.21
2889.00,81.23
2888.00,81.26
2887.00,81.30
2886.00,81.35
2885.00,81.40
2884.00,81.47
2883.00,81.54
2882.00,81.62
2881.00,81.71
2880.00,81.81
2879.00,81.92
2878.00,82.04
2877.00,82.16
2876.00,82.29
2875.00,82.42
2874.00,82.55
2873.00,82.69
2872.00,82.82
2871.00,82.96
2870.00,83.10
2869.00,83.25
2868.00,83.40
2867.00,83.54
2866.00,83.68
2865.00,83.82
2864.00,83.96
2863.00,84.09
2862.00,84.22
2861.00,84.35
2860.00,84.48
2859.00,84.60
2858.00,84.73
2857.00,84.86
2856.00,84.98
2855.00,85.10
2854.00,85.22
2853.00,85.34
2852.00,85.45
2851.00,85.57
2850.00,85.69
2849.00,85.81
2848.00,85.93
2847.00,86.05
2846.00,86.17
2845.00,86.28
2844.00,86.39
2843.00,86.50
2842.00,86.61
2841.00,86.72
2840.00,86.83
2839.00,86.94
2838.00,87.05
2837.00,87.16
2836.00,87.26
2835.00,87.36
2834.00,87.46
2833.00,87.56
2832.00,87.65
2831.00,87.75
2830.00,87.84
2829.00,87.94
2828.00,88.03
2827.00,88.11
2826.00,88.20
2825.00,88.28
2824.00,88.36
2823.00,88.44
2822.00,88.53
2821.00,88.61
2820.00,88.69
2819.00,88.77
2818.00,88.84
2817.00,88.91
2816.00,88.99
2815.00,89.06
2814.00,89.13
2813.00,89.20
2812.00,89.26
2811.00,89.33
2810.00,89.40
2809.00,89.47
2808.00,89.53
2807.00,89.59
2806.00,89.65
2805.00,89.71
2804.00,89.77
2803.00,89.83
2802.00,89.89
2801.00,89.95
2800.00,90.01
2799.00,90.07
2798.00,90.12
2797.00,90.18
2796.00,90.23
2795.00,90.29
2794.00,90.34
2793.00,90.40
2792.00,90.45
2791.00,90.50
2790.00,90.54
2789.00,90.59
2788.00,90.64
2787.00,90.68
2786.00,90.73
2785.00,90.77
2784.00,90.81
2783.00,90.85
2782.00,90.90
2781.00,90.94
2780.00,90.98
2779.00,91.02
2778.00,91.07
2777.00,91.11
2776.00,91.15
2775.00,91.19
2774.00,91.23
2773.00,91.28
2772.00,91.32
2771.00,91.35
2770.00,91.39
2769.00,91.43
2768.00,91.46
2767.00,91.49
2766.00,91.53
2765.00,91.56
2764.00,91.59
2763.00,91.62
2762.00,91.66
2761.00,91.69
2760.00,91.72
2759.00,91.75
2758.00,91.78
2757.00,91.80
2756.00,91.83
2755.00,91.86
2754.00,91.88
2753.00,91.91
2752.00,91.94
2751.00,91.96
2750.00,91.99
2749.00,92.02
2748.00,92.05
2747.00,92.07
2746.00,92.09
2745.00,92.11
2744.00,92.13
2743.00,92.16
2742.00,92.18
2741.00,92.20
2740.00,92.22
2739.00,92.24
2738.00,92.26
2737.00,92.28
2736.00,92.31
2735.00,92.33
2734.00,92.35
2733.00,92.37
2732.00,92.40
2731.00,92.42
2730.00,92.44
2729.00,92.45
2728.00,92.47
2727.00,92.50
2726.00,92.52
2725.00,92.53
2724.00,92.55
2723.00,92.58
2722.00,92.60
2721.00,92.62
2720.00,92.64
2719.00,92.67
2718.00,92.69
2717.00,92.71
2716.00,92.73
2715.00,92.76
2714.00,92.78
2713.00,92.80
2712.00,92.83
2711.00,92.85
2710.00,92.87
2709.00,92.89
2708.00,92.91
2707.00,92.94
2706.00,92.96
2705.00,92.99
2704.00,93.01
2703.00,93.04
2702.00,93.07
2701.00,93.10
2700.00,93.12
2699.00,93.15
2698.00,93.17
2697.00,93.20
2696.00,93.22
2695.00,93.25
2694.00,93.28
2693.00,93.30
2692.00,93.33
2691.00,93.36
2690.00,93.39
2689.00,93.41
2688.00,93.44
2687.00,93.47
2686.00,93.50
2685.00,93.53
2684.00,93.57
2683.00,93.59
2682.00,93.62
2681.00,93.65
2680.00,93.67
2679.00,93.70
2678.00,93.73
2677.00,93.77
2676.00,93.80
2675.00,93.84
2674.00,93.87
2673.00,93.91
2672.00,93.94
2671.00,93.97
2670.00,94.01
2669.00,94.04
2668.00,94.07
2667.00,94.10
2666.00,94.13
2665.00,94.17
2664.00,94.20
2663.00,94.23
2662.00,94.26
2661.00,94.29
2660.00,94.32
2659.00,94.35
2658.00,94.38
2657.00,94.41
2656.00,94.44
2655.00,94.47
2654.00,94.51
2653.00,94.54
2652.00,94.57
2651.00,94.60
2650.00,94.63
2649.00,94.66
2648.00,94.69
2647.00,94.72
2646.00,94.75
2645.00,94.78
2644.00,94.81
2643.00,94.84
2642.00,94.86
2641.00,94.89
2640.00,94.92
2639.00,94.95
2638.00,94.98
2637.00,95.01
2636.00,95.04
2635.00,95.07
2634.00,95.10
2633.00,95.13
2632.00,95.15
2631.00,95.18
2630.00,95.20
2629.00,95.23
2628.00,95.25
2627.00,95.28
2626.00,95.30
2625.00,95.33
2624.00,95.35
2623.00,95.38
2622.00,95.40
2621.00,95.43
2620.00,95.45
2619.00,95.48
2618.00,95.51
2617.00,95.53
2616.00,95.56
2615.00,95.58
2614.00,95.61
2613.00,95.62
2612.00,95.63
2611.00,95.65
2610.00,95.67
2609.00,95.69
2608.00,95.71
2607.00,95.74
2606.00,95.76
2605.00,95.78
2604.00,95.80
2603.00,95.82
2602.00,95.84
2601.00,95.85
2600.00,95.87
2599.00,95.89
2598.00,95.90
2597.00,95.91
2596.00,95.92
2595.00,95.93
2594.00,95.95
2593.00,95.96
2592.00,95.98
2591.00,95.99
2590.00,96.00
2589.00,96.02
2588.00,96.03
2587.00,96.05
2586.00,96.06
2585.00,96.08
2584.00,96.09
2583.00,96.10
2582.00,96.12
2581.00,96.13
2580.00,96.15
2579.00,96.16
2578.00,96.18
2577.00,96.19
2576.00,96.20
2575.00,96.22
2574.00,96.23
2573.00,96.23
2572.00,96.24
2571.00,96.25
2570.00,96.26
2569.00,96.27
2568.00,96.29
2567.00,96.30
2566.00,96.32
2565.00,96.33
2564.00,96.34
2563.00,96.35
2562.00,96.35
2561.00,96.36
2560.00,96.36
2559.00,96.37
2558.00,96.38
2557.00,96.39
2556.00,96.40
2555.00,96.41
2554.00,96.43
2553.00,96.44
2552.00,96.45
2551.00,96.47
2550.00,96.48
2549.00,96.48
2548.00,96.49
2547.00,96.49
2546.00,96.49
2545.00,96.50
2544.00,96.51
2543.00,96.52
2542.00,96.54
2541.00,96.55
2540.00,96.57
2539.00,96.58
2538.00,96.58
2537.00,96.58
2536.00,96.58
2535.00,96.58
2534.00,96.59
2533.00,96.60
2532.00,96.61
2531.00,96.62
2530.00,96.64
2529.00,96.64
2528.00,96.65
2527.00,96.66
2526.00,96.67
2525.00,96.68
2524.00,96.68
2523.00,96.69
2522.00,96.70
2521.00,96.71
2520.00,96.72
2519.00,96.73
2518.00,96.73
2517.00,96.74
2516.00,96.74
2515.00,96.75
2514.00,96.77
2513.00,96.78
2512.00,96.79
2511.00,96.79
2510.00,96.79
2509.00,96.80
2508.00,96.82
2507.00,96.83
2506.00,96.84
2505.00,96.85
2504.00,96.85
2503.00,96.86
2502.00,96.87
2501.00,96.88
2500.00,96.89
2499.00,96.89
2498.00,96.90
2497.00,96.91
2496.00,96.92
2495.00,96.94
2494.00,96.95
2493.00,96.96
2492.00,96.96
2491.00,96.97
2490.00,96.99
2489.00,97.00
2488.00,97.01
2487.00,97.02
2486.00,97.03
2485.00,97.04
2484.00,97.05
2483.00,97.06
2482.00,97.08
2481.00,97.09
2480.00,97.10
2479.00,97.11
2478.00,97.12
2477.00,97.13
2476.00,97.14
2475.00,97.15
2474.00,97.16
2473.00,97.18
2472.00,97.19
2471.00,97.20
2470.00,97.21
2469.00,97.22
2468.00,97.24
2467.00,97.26
2466.00,97.28
2465.00,97.29
2464.00,97.30
2463.00,97.32
2462.00,97.33
2461.00,97.34
2460.00,97.35
2459.00,97.36
2458.00,97.38
2457.00,97.39
2456.00,97.40
2455.00,97.42
2454.00,97.43
2453.00,97.45
2452.00,97.46
2451.00,97.46
2450.00,97.47
2449.00,97.49
2448.00,97.50
2447.00,97.51
2446.00,97.52
2445.00,97.53
2444.00,97.55
2443.00,97.56
2442.00,97.58
2441.00,97.60
2440.00,97.61
2439.00,97.62
2438.00,97.63
2437.00,97.64
2436.00,97.65
2435.00,97.66
2434.00,97.68
2433.00,97.69
2432.00,97.71
2431.00,97.72
2430.00,97.72
2429.00,97.73
2428.00,97.74
2427.00,97.74
2426.00,97.74
2425.00,97.75
2424.00,97.76
2423.00,97.78
2422.00,97.79
2421.00,97.80
2420.00,97.81
2419.00,97.81
2418.00,97.82
2417.00,97.83
2416.00,97.84
2415.00,97.85
2414.00,97.87
2413.00,97.87
2412.00,97.88
2411.00,97.89
2410.00,97.89
2409.00,97.90
2408.00,97.91
2407.00,97.91
2406.00,97.92
2405.00,97.93
2404.00,97.93
2403.00,97.94
2402.00,97.94
2401.00,97.95
2400.00,97.95
2399.00,97.96
2398.00,97.96
2397.00,97.96
2396.00,97.96
2395.00,97.97
2394.00,97.98
2393.00,97.99
2392.00,97.99
2391.00,98.00
2390.00,98.01
2389.00,98.01
2388.00,98.01
2387.00,98.01
2386.00,98.01
2385.00,98.01
2384.00,98.00
2383.00,98.01
2382.00,98.02
2381.00,98.03
2380.00,98.04
2379.00,98.05
2378.00,98.06
2377.00,98.05
2376.00,98.05
2375.00,98.05
2374.00,98.05
2373.00,98.05
2372.00,98.05
2371.00,98.05
2370.00,98.04
2369.00,98.03
2368.00,98.04
2367.00,98.06
2366.00,98.08
2365.00,98.11
2364.00,98.13
2363.00,98.14
2362.00,98.15
2361.00,98.13
2360.00,98.12
2359.00,98.12
2358.00,98.14
2357.00,98.15
2356.00,98.16
2355.00,98.16
2354.00,98.15
2353.00,98.14
2352.00,98.14
2351.00,98.16
2350.00,98.17
2349.00,98.18
2348.00,98.18
2347.00,98.17
2346.00,98.16
2345.00,98.14
2344.00,98.13
2343.00,98.12
2342.00,98.13
2341.00,98.13
2340.00,98.12
2339.00,98.13
2338.00,98.14
2337.00,98.16
2336.00,98.17
2335.00,98.18
2334.00,98.18
2333.00,98.16
2332.00,98.13
2331.00,98.11
2330.00,98.09
2329.00,98.07
2328.00,98.07
2327.00,98.07
2326.00,98.07
2325.00,98.06
2324.00,98.04
2323.00,98.03
2322.00,98.03
2321.00,98.03
2320.00,98.03
2319.00,98.03
2318.00,98.03
2317.00,98.03
2316.00,98.03
2315.00,98.03
2314.00,98.04
2313.00,98.04
2312.00,98.04
2311.00,98.05
2310.00,98.05
2309.00,98.04
2308.00,98.03
2307.00,98.03
2306.00,98.02
2305.00,98.02
2304.00,98.02
2303.00,98.02
2302.00,98.02
2301.00,98.02
2300.00,98.02
2299.00,98.02
2298.00,98.02
2297.00,98.02
2296.00,98.03
2295.00,98.03
2294.00,98.04
2293.00,98.04
2292.00,98.03
2291.00,98.03
2290.00,98.02
2289.00,98.02
2288.00,98.01
2287.00,98.01
2286.00,98.01
2285.00,98.01
2284.00,98.01
2283.00,98.01
2282.00,98.00
2281.00,97.99
2280.00,97.98
2279.00,97.99
2278.00,98.00
2277.00,98.00
2276.00,98.00
2275.00,97.99
2274.00,97.99
2273.00,97.98
2272.00,97.97
2271.00,97.97
2270.00,97.97
2269.00,97.97
2268.00,97.97
2267.00,97.96
2266.00,97.95
2265.00,97.94
2264.00,97.94
2263.00,97.93
2262.00,97.94
2261.00,97.94
2260.00,97.93
2259.00,97.93
2258.00,97.92
2257.00,97.91
2256.00,97.90
2255.00,97.90
2254.00,97.90
2253.00,97.90
2252.00,97.91
2251.00,97.90
2250.00,97.90
2249.00,97.88
2248.00,97.87
2247.00,97.86
2246.00,97.85
2245.00,97.85
2244.00,97.85
2243.00,97.85
2242.00,97.85
2241.00,97.84
2240.00,97.82
2239.00,97.81
2238.00,97.80
2237.00,97.79
2236.00,97.79
2235.00,97.79
2234.00,97.80
2233.00,97.80
2232.00,97.79
2231.00,97.78
2230.00,97.77
2229.00,97.76
2228.00,97.74
2227.00,97.73
2226.00,97.72
2225.00,97.71
2224.00,97.71
2223.00,97.72
2222.00,97.73
2221.00,97.73
2220.00,97.73
2219.00,97.72
2218.00,97.72
2217.00,97.72
2216.00,97.71
2215.00,97.69
2214.00,97.68
2213.00,97.67
2212.00,97.65
2211.00,97.65
2210.00,97.64
2209.00,97.64
2208.00,97.64
2207.00,97.64
2206.00,97.65
2205.00,97.65
2204.00,97.64
2203.00,97.62
2202.00,97.61
2201.00,97.60
2200.00,97.59
2199.00,97.59
2198.00,97.58
2197.00,97.58
2196.00,97.57
2195.00,97.56
2194.00,97.55
2193.00,97.53
2192.00,97.52
2191.00,97.52
2190.00,97.52
2189.00,97.52
2188.00,97.51
2187.00,97.51
2186.00,97.51
2185.00,97.50
2184.00,97.47
2183.00,97.45
2182.00,97.45
2181.00,97.46
2180.00,97.46
2179.00,97.46
2178.00,97.46
2177.00,97.45
2176.00,97.45
2175.00,97.46
2174.00,97.46
2173.00,97.45
2172.00,97.44
2171.00,97.43
2170.00,97.42
2169.00,97.41
2168.00,97.40
2167.00,97.40
2166.00,97.40
2165.00,97.39
2164.00,97.40
2163.00,97.42
2162.00,97.44
2161.00,97.45
2160.00,97.44
2159.00,97.42
2158.00,97.39
2157.00,97.36
2156.00,97.34
2155.00,97.34
2154.00,97.35
2153.00,97.34
2152.00,97.33
2151.00,97.32
2150.00,97.32
2149.00,97.31
2148.00,97.31
2147.00,97.31
2146.00,97.30
2145.00,97.30
2144.00,97.29
2143.00,97.28
2142.00,97.28
2141.00,97.28
2140.00,97.28
2139.00,97.27
2138.00,97.26
2137.00,97.24
2136.00,97.23
2135.00,97.23
2134.00,97.24
2133.00,97.24
2132.00,97.23
2131.00,97.21
2130.00,97.19
2129.00,97.19
2128.00,97.19
2127.00,97.20
2126.00,97.21
2125.00,97.21
2124.00,97.22
2123.00,97.21
2122.00,97.21
2121.00,97.20
2120.00,97.19
2119.00,97.19
2118.00,97.20
2117.00,97.20
2116.00,97.19
2115.00,97.19
2114.00,97.19
2113.00,97.19
2112.00,97.19
2111.00,97.19
2110.00,97.20
2109.00,97.21
2108.00,97.22
2107.00,97.23
2106.00,97.24
2105.00,97.25
2104.00,97.25
2103.00,97.26
2102.00,97.27
2101.00,97.27
2100.00,97.28
2099.00,97.29
2098.00,97.30
2097.00,97.30
2096.00,97.29
2095.00,97.29
2094.00,97.30
2093.00,97.31
2092.00,97.33
2091.00,97.33
2090.00,97.34
2089.00,97.34
2088.00,97.35
2087.00,97.36
2086.00,97.36
2085.00,97.37
2084.00,97.37
2083.00,97.38
2082.00,97.38
2081.00,97.39
2080.00,97.39
2079.00,97.41
2078.00,97.43
2077.00,97.44
2076.00,97.45
2075.00,97.46
2074.00,97.48
2073.00,97.48
2072.00,97.48
2071.00,97.48
2070.00,97.47
2069.00,97.45
2068.00,97.44
2067.00,97.45
2066.00,97.48
2065.00,97.50
2064.00,97.50
2063.00,97.50
2062.00,97.50
2061.00,97.51
2060.00,97.52
2059.00,97.54
2058.00,97.55
2057.00,97.56
2056.00,97.56
2055.00,97.57
2054.00,97.59
2053.00,97.61
2052.00,97.62
2051.00,97.62
2050.00,97.63
2049.00,97.63
2048.00,97.63
2047.00,97.64
2046.00,97.65
2045.00,97.66
2044.00,97.66
2043.00,97.68
2042.00,97.70
2041.00,97.71
2040.00,97.71
2039.00,97.71
2038.00,97.72
2037.00,97.72
2036.00,97.72
2035.00,97.73
2034.00,97.74
2033.00,97.74
2032.00,97.73
2031.00,97.74
2030.00,97.76
2029.00,97.78
2028.00,97.78
2027.00,97.78
2026.00,97.79
2025.00,97.80
2024.00,97.81
2023.00,97.83
2022.00,97.84
2021.00,97.84
2020.00,97.84
2019.00,97.85
2018.00,97.86
2017.00,97.86
2016.00,97.85
2015.00,97.84
2014.00,97.86
2013.00,97.89
2012.00,97.92
2011.00,97.95
2010.00,97.98
2009.00,97.98
2008.00,97.96
2007.00,97.95
2006.00,97.94
2005.00,97.93
2004.00,97.92
2003.00,97.94
2002.00,97.97
2001.00,97.98
2000.00,97.98
1999.00,97.99
1998.00,98.00
1997.00,98.01
1996.00,98.02
1995.00,98.03
1994.00,98.05
1993.00,98.06
1992.00,98.07
1991.00,98.07
1990.00,98.09
1989.00,98.09
1988.00,98.08
1987.00,98.07
1986.00,98.06
1985.00,98.05
1984.00,98.05
1983.00,98.07
1982.00,98.09
1981.00,98.10
1980.00,98.10
1979.00,98.10
1978.00,98.10
1977.00,98.10
1976.00,98.09
1975.00,98.09
1974.00,98.10
1973.00,98.10
1972.00,98.11
1971.00,98.11
1970.00,98.10
1969.00,98.09
1968.00,98.09
1967.00,98.10
1966.00,98.13
1965.00,98.14
1964.00,98.13
1963.00,98.12
1962.00,98.12
1961.00,98.10
1960.00,98.09
1959.00,98.09
1958.00,98.10
1957.00,98.11
1956.00,98.12
1955.00,98.15
1954.00,98.17
1953.00,98.17
1952.00,98.14
1951.00,98.12
1950.00,98.10
1949.00,98.09
1948.00,98.08
1947.00,98.08
1946.00,98.10
1945.00,98.11
1944.00,98.12
1943.00,98.13
1942.00,98.13
1941.00,98.12
1940.00,98.11
1939.00,98.11
1938.00,98.12
1937.00,98.13
1936.00,98.14
1935.00,98.16
1934.00,98.17
1933.00,98.18
1932.00,98.17
1931.00,98.16
1930.00,98.15
1929.00,98.14
1928.00,98.13
1927.00,98.12
1926.00,98.11
1925.00,98.09
1924.00,98.08
1923.00,98.08
1922.00,98.09
1921.00,98.11
1920.00,98.12
1919.00,98.13
1918.00,98.14
1917.00,98.14
1916.00,98.14
1915.00,98.15
1914.00,98.15
1913.00,98.14
1912.00,98.13
1911.00,98.12
1910.00,98.11
1909.00,98.11
1908.00,98.11
1907.00,98.12
1906.00,98.14
1905.00,98.15
1904.00,98.14
1903.00,98.14
1902.00,98.15
1901.00,98.14
1900.00,98.13
1899.00,98.13
1898.00,98.13
1897.00,98.14
1896.00,98.13
1895.00,98.13
1894.00,98.13
1893.00,98.11
1892.00,98.11
1891.00,98.11
1890.00,98.11
1889.00,98.12
1888.00,98.13
1887.00,98.14
1886.00,98.15
1885.00,98.14
1884.00,98.13
1883.00,98.13
1882.00,98.13
1881.00,98.13
1880.00,98.13
1879.00,98.14
1878.00,98.14
1877.00,98.14
1876.00,98.13
1875.00,98.12
1874.00,98.11
1873.00,98.08
1872.00,98.06
1871.00,98.06
1870.00,98.07
1869.00,98.08
1868.00,98.08
1867.00,98.09
1866.00,98.09
1865.00,98.09
1864.00,98.09
1863.00,98.09
1862.00,98.10
1861.00,98.10
1860.00,98.09
1859.00,98.08
1858.00,98.08
1857.00,98.08
1856.00,98.08
1855.00,98.08
1854.00,98.08
1853.00,98.07
1852.00,98.05
1851.00,98.03
1850.00,98.02
1849.00,98.00
1848.00,97.99
1847.00,97.98
1846.00,98.00
1845.00,98.01
1844.00,98.02
1843.00,98.02
1842.00,98.02
1841.00,98.02
1840.00,98.02
1839.00,98.02
1838.00,98.01
1837.00,98.00
1836.00,97.99
1835.00,97.97
1834.00,97.96
1833.00,97.95
1832.00,97.94
1831.00,97.94
1830.00,97.94
1829.00,97.93
1828.00,97.92
1827.00,97.93
1826.00,97.94
1825.00,97.95
1824.00,97.95
1823.00,97.95
1822.00,97.95
1821.00,97.95
1820.00,97.93
1819.00,97.93
1818.00,97.92
1817.00,97.91
1816.00,97.89
1815.00,97.88
1814.00,97.87
1813.00,97.86
1812.00,97.85
1811.00,97.85
1810.00,97.85
1809.00,97.84
1808.00,97.82
1807.00,97.81
1806.00,97.80
1805.00,97.77
1804.00,97.75
1803.00,97.74
1802.00,97.73
1801.00,97.72
1800.00,97.71
1799.00,97.70
1798.00,97.69
1797.00,97.67
1796.00,97.64
1795.00,97.63
1794.00,97.63
1793.00,97.63
1792.00,97.62
1791.00,97.61
1790.00,97.61
1789.00,97.59
1788.00,97.57
1787.00,97.55
1786.00,97.54
1785.00,97.52
1784.00,97.49
1783.00,97.47
1782.00,97.47
1781.00,97.45
1780.00,97.43
1779.00,97.41
1778.00,97.39
1777.00,97.36
1776.00,97.33
1775.00,97.31
1774.00,97.32
1773.00,97.31
1772.00,97.27
1771.00,97.25
1770.00,97.24
1769.00,97.25
1768.00,97.24
1767.00,97.22
1766.00,97.19
1765.00,97.17
1764.00,97.15
1763.00,97.14
1762.00,97.13
1761.00,97.10
1760.00,97.07
1759.00,97.06
1758.00,97.06
1757.00,97.03
1756.00,96.99
1755.00,96.95
1754.00,96.91
1753.00,96.88
1752.00,96.86
1751.00,96.83
1750.00,96.82
1749.00,96.80
1748.00,96.77
1747.00,96.74
1746.00,96.71
1745.00,96.68
1744.00,96.64
1743.00,96.61
1742.00,96.59
1741.00,96.56
1740.00,96.50
1739.00,96.43
1738.00,96.36
1737.00,96.31
1736.00,96.28
1735.00,96.24
1734.00,96.19
1733.00,96.13
1732.00,96.08
1731.00,96.04
1730.00,96.02
1729.00,95.97
1728.00,95.92
1727.00,95.87
1726.00,95.82
1725.00,95.76
1724.00,95.69
1723.00,95.60
1722.00,95.52
1721.00,95.43
1720.00,95.36
1719.00,95.31
1718.00,95.25
1717.00,95.18
1716.00,95.11
1715.00,95.05
1714.00,95.00
1713.00,94.93
1712.00,94.85
1711.00,94.76
1710.00,94.67
1709.00,94.56
1708.00,94.46
1707.00,94.36
1706.00,94.24
1705.00,94.09
1704.00,93.95
1703.00,93.86
1702.00,93.79
1701.00,93.66
1700.00,93.44
1699.00,93.27
1698.00,93.17
1697.00,93.08
1696.00,92.93
1695.00,92.75
1694.00,92.59
1693.00,92.44
1692.00,92.28
1691.00,92.10
1690.00,91.90
1689.00,91.68
1688.00,91.47
1687.00,91.30
1686.00,91.16
1685.00,90.95
1684.00,90.67
1683.00,90.41
1682.00,90.21
1681.00,90.02
1680.00,89.82
1679.00,89.62
1678.00,89.43
1677.00,89.24
1676.00,88.99
1675.00,88.71
1674.00,88.45
1673.00,88.23
1672.00,88.03
1671.00,87.82
1670.00,87.60
1669.00,87.35
1668.00,87.12
1667.00,86.92
1666.00,86.75
1665.00,86.58
1664.00,86.39
1663.00,86.17
1662.00,85.97
1661.00,85.77
1660.00,85.59
1659.00,85.41
1658.00,85.23
1657.00,85.06
1656.00,84.92
1655.00,84.85
1654.00,84.74
1653.00,84.55
1652.00,84.37
1651.00,84.27
1650.00,84.22
1649.00,84.18
1648.00,84.15
1647.00,84.10
1646.00,84.06
1645.00,84.04
1644.00,84.03
1643.00,84.03
1642.00,84.05
1641.00,84.06
1640.00,84.07
1639.00,84.10
1638.00,84.16
1637.00,84.27
1636.00,84.38
1635.00,84.49
1634.00,84.62
1633.00,84.75
1632.00,84.88
1631.00,85.02
1630.00,85.17
1629.00,85.34
1628.00,85.50
1627.00,85.67
1626.00,85.85
1625.00,86.05
1624.00,86.27
1623.00,86.49
1622.00,86.69
1621.00,86.86
1620.00,87.02
1619.00,87.22
1618.00,87.46
1617.00,87.72
1616.00,87.95
1615.00,88.14
1614.00,88.32
1613.00,88.49
1612.00,88.66
1611.00,88.83
1610.00,89.01
1609.00,89.18
1608.00,89.35
1607.00,89.50
1606.00,89.64
1605.00,89.77
1604.00,89.90
1603.00,90.02
1602.00,90.14
1601.00,90.25
1600.00,90.36
1599.00,90.45
1598.00,90.54
1597.00,90.63
1596.00,90.71
1595.00,90.80
1594.00,90.88
1593.00,90.96
1592.00,91.03
1591.00,91.11
1590.00,91.19
1589.00,91.26
1588.00,91.33
1587.00,91.40
1586.00,91.47
1585.00,91.54
1584.00,91.61
1583.00,91.68
1582.00,91.75
1581.00,91.82
1580.00,91.88
1579.00,91.94
1578.00,92.00
1577.00,92.06
1576.00,92.13
1575.00,92.20
1574.00,92.27
1573.00,92.33
1572.00,92.39
1571.00,92.44
1570.00,92.49
1569.00,92.55
1568.00,92.60
1567.00,92.64
1566.00,92.69
1565.00,92.71
1564.00,92.71
1563.00,92.69
1562.00,92.69
1561.00,92.74
1560.00,92.82
1559.00,92.89
1558.00,92.93
1557.00,92.96
1556.00,93.00
1555.00,93.04
1554.00,93.07
1553.00,93.08
1552.00,93.10
1551.00,93.12
1550.00,93.15
1549.00,93.16
1548.00,93.15
1547.00,93.14
1546.00,93.12
1545.00,93.09
1544.00,93.07
1543.00,93.06
1542.00,93.09
1541.00,93.14
1540.00,93.17
1539.00,93.17
1538.00,93.16
1537.00,93.14
1536.00,93.14
1535.00,93.14
1534.00,93.14
1533.00,93.12
1532.00,93.10
1531.00,93.08
1530.00,93.06
1529.00,93.02
1528.00,92.99
1527.00,92.96
1526.00,92.93
1525.00,92.88
1524.00,92.85
1523.00,92.83
1522.00,92.81
1521.00,92.77
1520.00,92.72
1519.00,92.68
1518.00,92.66
1517.00,92.63
1516.00,92.58
1515.00,92.54
1514.00,92.50
1513.00,92.43
1512.00,92.34
1511.00,92.23
1510.00,92.14
1509.00,92.08
1508.00,92.05
1507.00,92.02
1506.00,91.95
1505.00,91.86
1504.00,91.77
1503.00,91.70
1502.00,91.61
1501.00,91.51
1500.00,91.39
1499.00,91.28
1498.00,91.16
1497.00,91.01
1496.00,90.84
1495.00,90.66
1494.00,90.49
1493.00,90.31
1492.00,90.11
1491.00,89.91
1490.00,89.70
1489.00,89.49
1488.00,89.27
1487.00,89.07
1486.00,88.85
1485.00,88.61
1484.00,88.36
1483.00,88.10
1482.00,87.82
1481.00,87.51
1480.00,87.19
1479.00,86.88
1478.00,86.55
1477.00,86.18
1476.00,85.80
1475.00,85.45
1474.00,85.07
1473.00,84.64
1472.00,84.17
1471.00,83.75
1470.00,83.36
1469.00,82.99
1468.00,82.62
1467.00,82.25
1466.00,81.85
1465.00,81.40
1464.00,80.96
1463.00,80.57
1462.00,80.22
1461.00,79.89
1460.00,79.59
1459.00,79.32
1458.00,79.05
1457.00,78.74
1456.00,78.47
1455.00,78.31
1454.00,78.20
1453.00,78.10
1452.00,78.01
1451.00,77.94
1450.00,77.87
1449.00,77.81
1448.00,77.75
1447.00,77.70
1446.00,77.64
1445.00,77.57
1444.00,77.48
1443.00,77.38
1442.00,77.27
1441.00,77.14
1440.00,77.01
1439.00,76.89
1438.00,76.77
1437.00,76.61
1436.00,76.44
1435.00,76.30
1434.00,76.19
1433.00,76.07
1432.00,75.95
1431.00,75.83
1430.00,75.70
1429.00,75.58
1428.00,75.46
1427.00,75.36
1426.00,75.27
1425.00,75.17
1424.00,75.07
1423.00,74.98
1422.00,74.90
1421.00,74.83
1420.00,74.77
1419.00,74.72
1418.00,74.68
1417.00,74.67
1416.00,74.67
1415.00,74.70
1414.00,74.72
1413.00,74.75
1412.00,74.78
1411.00,74.83
1410.00,74.89
1409.00,74.96
1408.00,75.04
1407.00,75.14
1406.00,75.26
1405.00,75.39
1404.00,75.54
1403.00,75.69
1402.00,75.85
1401.00,76.00
1400.00,76.15
1399.00,76.31
1398.00,76.46
1397.00,76.60
1396.00,76.74
1395.00,76.88
1394.00,77.00
1393.00,77.09
1392.00,77.15
1391.00,77.20
1390.00,77.23
1389.00,77.25
1388.00,77.26
1387.00,77.25
1386.00,77.23
1385.00,77.19
1384.00,77.13
1383.00,77.06
1382.00,76.97
1381.00,76.86
1380.00,76.75
1379.00,76.62
1378.00,76.50
1377.00,76.37
1376.00,76.24
1375.00,76.12
1374.00,76.01
1373.00,75.91
1372.00,75.81
1371.00,75.72
1370.00,75.64
1369.00,75.56
1368.00,75.48
1367.00,75.41
1366.00,75.33
1365.00,75.26
1364.00,75.19
1363.00,75.14
1362.00,75.10
1361.00,75.07
1360.00,75.04
1359.00,75.03
1358.00,75.01
1357.00,74.98
1356.00,74.95
1355.00,74.93
1354.00,74.90
1353.00,74.87
1352.00,74.83
1351.00,74.80
1350.00,74.77
1349.00,74.73
1348.00,74.69
1347.00,74.65
1346.00,74.62
1345.00,74.59
1344.00,74.57
1343.00,74.55
1342.00,74.54
1341.00,74.55
1340.00,74.58
1339.00,74.63
1338.00,74.70
1337.00,74.78
1336.00,74.86
1335.00,74.95
1334.00,75.06
1333.00,75.16
1332.00,75.27
1331.00,75.38
1330.00,75.49
1329.00,75.60
1328.00,75.71
1327.00,75.82
1326.00,75.92
1325.00,76.03
1324.00,76.13
1323.00,76.23
1322.00,76.33
1321.00,76.44
1320.00,76.54
1319.00,76.66
1318.00,76.78
1317.00,76.90
1316.00,77.03
1315.00,77.16
1314.00,77.31
1313.00,77.47
1312.00,77.63
1311.00,77.81
1310.00,77.98
1309.00,78.16
1308.00,78.35
1307.00,78.53
1306.00,78.72
1305.00,78.90
1304.00,79.07
1303.00,79.24
1302.00,79.40
1301.00,79.55
1300.00,79.68
1299.00,79.81
1298.00,79.91
1297.00,79.99
1296.00,80.06
1295.00,80.11
1294.00,80.14
1293.00,80.16
1292.00,80.16
1291.00,80.15
1290.00,80.12
1289.00,80.07
1288.00,80.01
1287.00,79.95
1286.00,79.88
1285.00,79.80
1284.00,79.73
1283.00,79.65
1282.00,79.57
1281.00,79.48
1280.00,79.40
1279.00,79.31
1278.00,79.22
1277.00,79.12
1276.00,79.01
1275.00,78.90
1274.00,78.79
1273.00,78.68
1272.00,78.56
1271.00,78.44
1270.00,78.31
1269.00,78.18
1268.00,78.06
1267.00,77.93
1266.00,77.81
1265.00,77.70
1264.00,77.59
1263.00,77.50
1262.00,77.42
1261.00,77.36
1260.00,77.31
1259.00,77.28
1258.00,77.27
1257.00,77.27
1256.00,77.27
1255.00,77.29
1254.00,77.31
1253.00,77.35
1252.00,77.39
1251.00,77.43
1250.00,77.48
1249.00,77.53
1248.00,77.58
1247.00,77.64
1246.00,77.70
1245.00,77.76
1244.00,77.82
1243.00,77.89
1242.00,77.96
1241.00,78.02
1240.00,78.09
1239.00,78.16
1238.00,78.23
1237.00,78.30
1236.00,78.38
1235.00,78.46
1234.00,78.55
1233.00,78.65
1232.00,78.76
1231.00,78.88
1230.00,79.01
1229.00,79.14
1228.00,79.28
1227.00,79.43
1226.00,79.59
1225.00,79.74
1224.00,79.90
1223.00,80.06
1222.00,80.22
1221.00,80.37
1220.00,80.51
1219.00,80.64
1218.00,80.76
1217.00,80.87
1216.00,80.97
1215.00,81.07
1214.00,81.15
1213.00,81.23
1212.00,81.30
1211.00,81.36
1210.00,81.40
1209.00,81.43
1208.00,81.47
1207.00,81.49
1206.00,81.51
1205.00,81.52
1204.00,81.53
1203.00,81.54
1202.00,81.55
1201.00,81.56
1200.00,81.58
1199.00,81.60
1198.00,81.61
1197.00,81.63
1196.00,81.63
1195.00,81.64
1194.00,81.64
1193.00,81.65
1192.00,81.66
1191.00,81.68
1190.00,81.71
1189.00,81.74
1188.00,81.79
1187.00,81.86
1186.00,81.93
1185.00,82.00
1184.00,82.09
1183.00,82.18
1182.00,82.27
1181.00,82.34
1180.00,82.40
1179.00,82.44
1178.00,82.46
1177.00,82.44
1176.00,82.39
1175.00,82.29
1174.00,82.14
1173.00,81.93
1172.00,81.67
1171.00,81.34
1170.00,80.95
1169.00,80.49
1168.00,79.98
1167.00,79.42
1166.00,78.81
1165.00,78.17
1164.00,77.50
1163.00,76.82
1162.00,76.15
1161.00,75.48
1160.00,74.83
1159.00,74.22
1158.00,73.63
1157.00,73.06
1156.00,72.51
1155.00,71.98
1154.00,71.46
1153.00,70.93
1152.00,70.41
1151.00,69.89
1150.00,69.37
1149.00,68.85
1148.00,68.33
1147.00,67.83
1146.00,67.35
1145.00,66.89
1144.00,66.45
1143.00,66.06
1142.00,65.70
1141.00,65.38
1140.00,65.10
1139.00,64.85
1138.00,64.63
1137.00,64.44
1136.00,64.26
1135.00,64.11
1134.00,63.98
1133.00,63.87
1132.00,63.76
1131.00,63.68
1130.00,63.61
1129.00,63.54
1128.00,63.46
1127.00,63.37
1126.00,63.27
1125.00,63.15
1124.00,63.00
1123.00,62.83
1122.00,62.63
1121.00,62.40
1120.00,62.12
1119.00,61.81
1118.00,61.47
1117.00,61.07
1116.00,60.63
1115.00,60.16
1114.00,59.65
1113.00,59.11
1112.00,58.55
1111.00,57.97
1110.00,57.40
1109.00,56.84
1108.00,56.30
1107.00,55.82
1106.00,55.41
1105.00,55.07
1104.00,54.81
1103.00,54.65
1102.00,54.60
1101.00,54.64
1100.00,54.78
1099.00,55.00
1098.00,55.29
1097.00,55.59
1096.00,55.87
1095.00,56.11
1094.00,56.27
1093.00,56.32
1092.00,56.21
1091.00,55.95
1090.00,55.53
1089.00,54.94
1088.00,54.20
1087.00,53.36
1086.00,52.44
1085.00,51.45
1084.00,50.44
1083.00,49.45
1082.00,48.51
1081.00,47.62
1080.00,46.79
1079.00,46.03
1078.00,45.36
1077.00,44.75
1076.00,44.19
1075.00,43.71
1074.00,43.27
1073.00,42.85
1072.00,42.42
1071.00,41.99
1070.00,41.55
1069.00,41.07
1068.00,40.54
1067.00,40.00
1066.00,39.45
1065.00,38.88
1064.00,38.27
1063.00,37.67
1062.00,37.05
1061.00,36.42
1060.00,35.76
1059.00,35.12
1058.00,34.49
1057.00,33.86
1056.00,33.25
1055.00,32.67
1054.00,32.14
1053.00,31.65
1052.00,31.20
1051.00,30.85
1050.00,30.60
1049.00,30.41
1048.00,30.27
1047.00,30.18
1046.00,30.13
1045.00,30.08
1044.00,30.03
1043.00,29.98
1042.00,29.94
1041.00,29.86
1040.00,29.75
1039.00,29.63
1038.00,29.51
1037.00,29.36
1036.00,29.18
1035.00,28.99
1034.00,28.81
1033.00,28.62
1032.00,28.44
1031.00,28.29
1030.00,28.18
1029.00,28.12
1028.00,28.11
1027.00,28.18
1026.00,28.33
1025.00,28.54
1024.00,28.79
1023.00,29.08
1022.00,29.40
1021.00,29.70
1020.00,29.96
1019.00,30.19
1018.00,30.39
1017.00,30.54
1016.00,30.65
1015.00,30.76
1014.00,30.90
1013.00,31.07
1012.00,31.27
1011.00,31.53
1010.00,31.83
1009.00,32.15
1008.00,32.47
1007.00,32.77
1006.00,33.04
1005.00,33.24
1004.00,33.36
1003.00,33.39
1002.00,33.36
1001.00,33.23
1000.00,33.04
999.00,32.81
998.00,32.55
997.00,32.25
996.00,31.92
995.00,31.58
994.00,31.25
993.00,30.93
992.00,30.63
991.00,30.40
990.00,30.26
989.00,30.21
988.00,30.28
987.00,30.51
986.00,30.91
985.00,31.45
984.00,32.14
983.00,32.99
982.00,33.99
981.00,35.11
980.00,36.35
979.00,37.71
978.00,39.20
977.00,40.79
976.00,42.47
975.00,44.21
974.00,45.98
973.00,47.70
972.00,49.32
971.00,50.80
970.00,52.10
969.00,53.22
968.00,54.18
967.00,55.03
966.00,55.84
965.00,56.66
964.00,57.53
963.00,58.48
962.00,59.52
961.00,60.60
960.00,61.70
959.00,62.76
958.00,63.74
957.00,64.59
956.00,65.29
955.00,65.83
954.00,66.23
953.00,66.49
952.00,66.62
951.00,66.65
950.00,66.60
949.00,66.49
948.00,66.33
947.00,66.15
946.00,65.95
945.00,65.73
944.00,65.49
943.00,65.26
942.00,65.02
941.00,64.77
940.00,64.51
939.00,64.23
938.00,63.93
937.00,63.59
936.00,63.22
935.00,62.83
934.00,62.42
933.00,61.98
932.00,61.52
931.00,61.05
930.00,60.59
929.00,60.13
928.00,59.70
927.00,59.31
926.00,58.98
925.00,58.71
924.00,58.51
923.00,58.41
922.00,58.42
921.00,58.52
920.00,58.72
919.00,59.02
918.00,59.43
917.00,59.92
916.00,60.47
915.00,61.09
914.00,61.74
913.00,62.40
912.00,63.05
911.00,63.68
910.00,64.27
909.00,64.79
908.00,65.25
907.00,65.65
906.00,66.01
905.00,66.31
904.00,66.57
903.00,66.81
902.00,67.03
901.00,67.23
900.00,67.41
899.00,67.60
898.00,67.80
897.00,67.99
896.00,68.19
895.00,68.39
894.00,68.61
893.00,68.84
892.00,69.06
891.00,69.27
890.00,69.49
889.00,69.68
888.00,69.86
887.00,70.01
886.00,70.12
885.00,70.16
884.00,70.14
883.00,70.06
882.00,69.91
881.00,69.67
880.00,69.35
879.00,68.96
878.00,68.52
877.00,68.02
876.00,67.49
875.00,66.96
874.00,66.44
873.00,65.93
872.00,65.46
871.00,65.05
870.00,64.71
869.00,64.44
868.00,64.21
867.00,64.06
866.00,63.98
865.00,63.96
864.00,63.99
863.00,64.09
862.00,64.24
861.00,64.42
860.00,64.61
859.00,64.81
858.00,65.00
857.00,65.19
856.00,65.37
855.00,65.54
854.00,65.70
853.00,65.84
852.00,65.93
851.00,65.99
850.00,66.03
849.00,66.03
848.00,66.00
847.00,65.96
846.00,65.90
845.00,65.82
844.00,65.71
843.00,65.60
842.00,65.47
841.00,65.33
840.00,65.15
839.00,64.95
838.00,64.74
837.00,64.50
836.00,64.23
835.00,63.94
834.00,63.64
833.00,63.33
832.00,63.01
831.00,62.73
830.00,62.47
829.00,62.21
828.00,61.94
827.00,61.66
826.00,61.35
825.00,60.99
824.00,60.59
823.00,60.19
822.00,59.82
821.00,59.51
820.00,59.27
819.00,59.12
818.00,59.07
817.00,59.11
816.00,59.22
815.00,59.43
814.00,59.71
813.00,60.05
812.00,60.42
811.00,60.80
810.00,61.19
809.00,61.53
808.00,61.82
807.00,62.06
806.00,62.25
805.00,62.40
804.00,62.49
803.00,62.55
802.00,62.58
801.00,62.56
800.00,62.51
799.00,62.43
798.00,62.33
797.00,62.19
796.00,62.01
795.00,61.80
794.00,61.54
793.00,61.23
792.00,60.84
791.00,60.40
790.00,59.90
789.00,59.34
788.00,58.73
787.00,58.09
786.00,57.44
785.00,56.79
784.00,56.14
783.00,55.53
782.00,54.99
781.00,54.51
780.00,54.10
779.00,53.78
778.00,53.55
777.00,53.39
776.00,53.28
775.00,53.24
774.00,53.26
773.00,53.31
772.00,53.39
771.00,53.51
770.00,53.66
769.00,53.82
768.00,53.98
767.00,54.15
766.00,54.32
765.00,54.46
764.00,54.57
763.00,54.67
762.00,54.75
761.00,54.81
760.00,54.83
759.00,54.82
758.00,54.80
757.00,54.73
756.00,54.64
755.00,54.55
754.00,54.46
753.00,54.35
752.00,54.23
751.00,54.12
750.00,54.00
749.00,53.87
748.00,53.73
747.00,53.59
746.00,53.46
745.00,53.33
744.00,53.19
743.00,53.07
742.00,52.96
741.00,52.85
740.00,52.72
739.00,52.60
738.00,52.49
737.00,52.37
736.00,52.24
735.00,52.10
734.00,51.98
733.00,51.84
732.00,51.70
731.00,51.56
730.00,51.43
729.00,51.30
728.00,51.14
727.00,50.97
726.00,50.81
725.00,50.63
724.00,50.44
723.00,50.24
722.00,50.04
721.00,49.81
720.00,49.54
719.00,49.26
718.00,49.01
717.00,48.76
716.00,48.49
715.00,48.22
714.00,47.96
713.00,47.69
712.00,47.41
711.00,47.15
710.00,46.91
709.00,46.68
708.00,46.44
707.00,46.23
706.00,46.05
705.00,45.88
704.00,45.70
703.00,45.54
702.00,45.42
701.00,45.32
700.00,45.21
699.00,45.11
698.00,45.02
697.00,44.92
696.00,44.80
695.00,44.72
694.00,44.67
693.00,44.61
692.00,44.52
691.00,44.44
690.00,44.37
689.00,44.28
688.00,44.18
687.00,44.10
686.00,44.07
685.00,44.02
684.00,43.93
683.00,43.83
682.00,43.74
681.00,43.63
680.00,43.52
679.00,43.44
678.00,43.37
677.00,43.28
676.00,43.15
675.00,43.05
674.00,42.96
673.00,42.86
672.00,42.75
671.00,42.67
670.00,42.61
669.00,42.47
668.00,42.23
667.00,42.06
666.00,42.04
665.00,42.01
664.00,41.94
663.00,41.84
662.00,41.78
661.00,41.70
660.00,41.59
659.00,41.47
658.00,41.38
657.00,41.28
656.00,41.12
655.00,40.95
654.00,40.79
653.00,40.60
652.00,40.38
651.00,40.21
650.00,40.06
