Created as New Dataset,Sample 304 By iruser Date Friday, March 13 2026
cm-1,%T
4200.00,100.25
4199.00,100.24
4198.00,100.24
4197.00,100.23
4196.00,100.23
4195.00,100.22
4194.00,100.22
4193.00,100.22
4192.00,100.23
4191.00,100.23
4190.00,100.23
4189.00,100.23
4188.00,100.23
4187.00,100.23
4186.00,100.23
4185.00,100.23
4184.00,100.23
4183.00,100.23
4182.00,100.23
4181.00,100.23
4180.00,100.23
4179.00,100.23
4178.00,100.23
4177.00,100.24
4176.00,100.24
4175.00,100.23
4174.00,100.22
4173.00,100.21
4172.00,100.21
4171.00,100.21
4170.00,100.21
4169.00,100.21
4168.00,100.22
4167.00,100.21
4166.00,100.21
4165.00,100.20
4164.00,100.20
4163.00,100.19
4162.00,100.19
4161.00,100.20
4160.00,100.20
4159.00,100.20
4158.00,100.20
4157.00,100.19
4156.00,100.18
4155.00,100.17
4154.00,100.17
4153.00,100.17
4152.00,100.18
4151.00,100.18
4150.00,100.19
4149.00,100.19
4148.00,100.18
4147.00,100.18
4146.00,100.18
4145.00,100.17
4144.00,100.17
4143.00,100.16
4142.00,100.16
4141.00,100.15
4140.00,100.15
4139.00,100.15
4138.00,100.15
4137.00,100.15
4136.00,100.15
4135.00,100.15
4134.00,100.15
4133.00,100.15
4132.00,100.15
4131.00,100.16
4130.00,100.15
4129.00,100.15
4128.00,100.15
4127.00,100.15
4126.00,100.14
4125.00,100.14
4124.00,100.14
4123.00,100.14
4122.00,100.14
4121.00,100.13
4120.00,100.13
4119.00,100.13
4118.00,100.12
4117.00,100.11
4116.00,100.11
4115.00,100.10
4114.00,100.10
4113.00,100.10
4112.00,100.10
4111.00,100.10
4110.00,100.10
4109.00,100.10
4108.00,100.09
4107.00,100.09
4106.00,100.09
4105.00,100.09
4104.00,100.09
4103.00,100.08
4102.00,100.08
4101.00,100.08
4100.00,100.08
4099.00,100.07
4098.00,100.07
4097.00,100.07
4096.00,100.07
4095.00,100.07
4094.00,100.08
4093.00,100.08
4092.00,100.08
4091.00,100.07
4090.00,100.07
4089.00,100.06
4088.00,100.06
4087.00,100.05
4086.00,100.05
4085.00,100.04
4084.00,100.03
4083.00,100.03
4082.00,100.03
4081.00,100.03
4080.00,100.03
4079.00,100.03
4078.00,100.02
4077.00,100.01
4076.00,100.00
4075.00,100.00
4074.00,100.00
4073.00,100.00
4072.00,100.00
4071.00,100.00
4070.00,100.00
4069.00,100.00
4068.00,99.99
4067.00,99.99
4066.00,99.98
4065.00,99.98
4064.00,99.98
4063.00,99.97
4062.00,99.97
4061.00,99.97
4060.00,99.97
4059.00,99.97
4058.00,99.97
4057.00,99.96
4056.00,99.96
4055.00,99.96
4054.00,99.95
4053.00,99.95
4052.00,99.95
4051.00,99.94
4050.00,99.94
4049.00,99.94
4048.00,99.94
4047.00,99.93
4046.00,99.93
4045.00,99.93
4044.00,99.93
4043.00,99.92
4042.00,99.93
4041.00,99.93
4040.00,99.93
4039.00,99.93
4038.00,99.93
4037.00,99.92
4036.00,99.91
4035.00,99.91
4034.00,99.91
4033.00,99.90
4032.00,99.90
4031.00,99.89
4030.00,99.89
4029.00,99.88
4028.00,99.87
4027.00,99.87
4026.00,99.88
4025.00,99.88
4024.00,99.89
4023.00,99.89
4022.00,99.89
4021.00,99.89
4020.00,99.89
4019.00,99.89
4018.00,99.89
4017.00,99.88
4016.00,99.88
4015.00,99.87
4014.00,99.87
4013.00,99.87
4012.00,99.87
4011.00,99.87
4010.00,99.87
4009.00,99.87
4008.00,99.87
4007.00,99.87
4006.00,99.87
4005.00,99.87
4004.00,99.86
4003.00,99.86
4002.00,99.86
4001.00,99.86
4000.00,99.86
3999.00,99.86
3998.00,99.86
3997.00,99.87
3996.00,99.87
3995.00,99.87
3994.00,99.87
3993.00,99.87
3992.00,99.87
3991.00,99.86
3990.00,99.86
3989.00,99.86
3988.00,99.87
3987.00,99.87
3986.00,99.88
3985.00,99.88
3984.00,99.88
3983.00,99.88
3982.00,99.87
3981.00,99.87
3980.00,99.87
3979.00,99.88
3978.00,99.88
3977.00,99.88
3976.00,99.88
3975.00,99.88
3974.00,99.88
3973.00,99.88
3972.00,99.88
3971.00,99.88
3970.00,99.87
3969.00,99.87
3968.00,99.88
3967.00,99.88
3966.00,99.89
3965.00,99.89
3964.00,99.89
3963.00,99.89
3962.00,99.89
3961.00,99.89
3960.00,99.89
3959.00,99.89
3958.00,99.89
3957.00,99.89
3956.00,99.89
3955.00,99.89
3954.00,99.89
3953.00,99.89
3952.00,99.89
3951.00,99.88
3950.00,99.88
3949.00,99.89
3948.00,99.89
3947.00,99.89
3946.00,99.90
3945.00,99.90
3944.00,99.91
3943.00,99.92
3942.00,99.93
3941.00,99.93
3940.00,99.92
3939.00,99.91
3938.00,99.91
3937.00,99.90
3936.00,99.90
3935.00,99.90
3934.00,99.90
3933.00,99.91
3932.00,99.91
3931.00,99.91
3930.00,99.92
3929.00,99.92
3928.00,99.92
3927.00,99.92
3926.00,99.92
3925.00,99.93
3924.00,99.94
3923.00,99.95
3922.00,99.95
3921.00,99.95
3920.00,99.94
3919.00,99.94
3918.00,99.95
3917.00,99.95
3916.00,99.96
3915.00,99.96
3914.00,99.95
3913.00,99.95
3912.00,99.94
3911.00,99.94
3910.00,99.94
3909.00,99.94
3908.00,99.94
3907.00,99.94
3906.00,99.94
3905.00,99.95
3904.00,99.96
3903.00,99.97
3902.00,99.97
3901.00,99.97
3900.00,99.97
3899.00,99.97
3898.00,99.97
3897.00,99.97
3896.00,99.97
3895.00,99.97
3894.00,99.97
3893.00,99.97
3892.00,99.97
3891.00,99.98
3890.00,99.98
3889.00,99.98
3888.00,99.97
3887.00,99.96
3886.00,99.97
3885.00,99.98
3884.00,99.98
3883.00,99.98
3882.00,99.98
3881.00,99.98
3880.00,99.99
3879.00,99.99
3878.00,99.99
3877.00,99.98
3876.00,99.98
3875.00,99.97
3874.00,99.97
3873.00,99.97
3872.00,99.97
3871.00,99.97
3870.00,99.98
3869.00,99.99
3868.00,99.98
3867.00,99.97
3866.00,99.96
3865.00,99.96
3864.00,99.96
3863.00,99.97
3862.00,99.97
3861.00,99.98
3860.00,99.98
3859.00,99.99
3858.00,99.99
3857.00,100.00
3856.00,100.00
3855.00,99.99
3854.00,99.99
3853.00,99.99
3852.00,99.99
3851.00,99.98
3850.00,99.97
3849.00,99.97
3848.00,99.98
3847.00,99.99
3846.00,99.99
3845.00,99.99
3844.00,99.99
3843.00,99.99
3842.00,99.99
3841.00,99.99
3840.00,99.99
3839.00,99.99
3838.00,99.99
3837.00,99.99
3836.00,99.99
3835.00,99.98
3834.00,99.98
3833.00,99.97
3832.00,99.97
3831.00,99.98
3830.00,99.98
3829.00,99.97
3828.00,99.97
3827.00,99.97
3826.00,99.98
3825.00,99.98
3824.00,99.98
3823.00,99.96
3822.00,99.96
3821.00,99.97
3820.00,99.97
3819.00,99.97
3818.00,99.96
3817.00,99.96
3816.00,99.96
3815.00,99.96
3814.00,99.96
3813.00,99.96
3812.00,99.96
3811.00,99.96
3810.00,99.96
3809.00,99.95
3808.00,99.95
3807.00,99.95
3806.00,99.96
3805.00,99.96
3804.00,99.95
3803.00,99.94
3802.00,99.94
3801.00,99.95
3800.00,99.95
3799.00,99.94
3798.00,99.93
3797.00,99.93
3796.00,99.94
3795.00,99.94
3794.00,99.94
3793.00,99.94
3792.00,99.94
3791.00,99.94
3790.00,99.93
3789.00,99.92
3788.00,99.92
3787.00,99.92
3786.00,99.92
3785.00,99.92
3784.00,99.92
3783.00,99.92
3782.00,99.92
3781.00,99.91
3780.00,99.91
3779.00,99.91
3778.00,99.91
3777.00,99.91
3776.00,99.91
3775.00,99.91
3774.00,99.91
3773.00,99.91
3772.00,99.91
3771.00,99.90
3770.00,99.90
3769.00,99.90
3768.00,99.89
3767.00,99.88
3766.00,99.88
3765.00,99.88
3764.00,99.89
3763.00,99.89
3762.00,99.89
3761.00,99.89
3760.00,99.89
3759.00,99.89
3758.00,99.89
3757.00,99.88
3756.00,99.88
3755.00,99.87
3754.00,99.87
3753.00,99.86
3752.00,99.86
3751.00,99.86
3750.00,99.86
3749.00,99.87
3748.00,99.87
3747.00,99.86
3746.00,99.84
3745.00,99.84
3744.00,99.84
3743.00,99.83
3742.00,99.82
3741.00,99.81
3740.00,99.80
3739.00,99.80
3738.00,99.79
3737.00,99.79
3736.00,99.78
3735.00,99.78
3734.00,99.78
3733.00,99.77
3732.00,99.77
3731.00,99.76
3730.00,99.75
3729.00,99.75
3728.00,99.74
3727.00,99.74
3726.00,99.75
3725.00,99.76
3724.00,99.76
3723.00,99.76
3722.00,99.75
3721.00,99.73
3720.00,99.72
3719.00,99.71
3718.00,99.70
3717.00,99.70
3716.00,99.69
3715.00,99.68
3714.00,99.66
3713.00,99.65
3712.00,99.64
3711.00,99.63
3710.00,99.62
3709.00,99.60
3708.00,99.59
3707.00,99.58
3706.00,99.57
3705.00,99.56
3704.00,99.56
3703.00,99.55
3702.00,99.53
3701.00,99.52
3700.00,99.50
3699.00,99.48
3698.00,99.45
3697.00,99.43
3696.00,99.41
3695.00,99.40
3694.00,99.38
3693.00,99.37
3692.00,99.35
3691.00,99.32
3690.00,99.29
3689.00,99.25
3688.00,99.22
3687.00,99.19
3686.00,99.16
3685.00,99.14
3684.00,99.12
3683.00,99.10
3682.00,99.07
3681.00,99.05
3680.00,99.01
3679.00,98.98
3678.00,98.93
3677.00,98.88
3676.00,98.83
3675.00,98.80
3674.00,98.77
3673.00,98.73
3672.00,98.67
3671.00,98.62
3670.00,98.56
3669.00,98.50
3668.00,98.45
3667.00,98.39
3666.00,98.34
3665.00,98.28
3664.00,98.23
3663.00,98.17
3662.00,98.11
3661.00,98.06
3660.00,98.00
3659.00,97.94
3658.00,97.86
3657.00,97.78
3656.00,97.71
3655.00,97.64
3654.00,97.57
3653.00,97.49
3652.00,97.41
3651.00,97.32
3650.00,97.22
3649.00,97.11
3648.00,97.02
3647.00,96.93
3646.00,96.84
3645.00,96.76
3644.00,96.68
3643.00,96.59
3642.00,96.50
3641.00,96.40
3640.00,96.31
3639.00,96.21
3638.00,96.11
3637.00,96.01
3636.00,95.90
3635.00,95.80
3634.00,95.70
3633.00,95.61
3632.00,95.51
3631.00,95.40
3630.00,95.27
3629.00,95.14
3628.00,95.02
3627.00,94.90
3626.00,94.79
3625.00,94.69
3624.00,94.59
3623.00,94.48
3622.00,94.37
3621.00,94.25
3620.00,94.13
3619.00,94.00
3618.00,93.87
3617.00,93.74
3616.00,93.61
3615.00,93.48
3614.00,93.36
3613.00,93.23
3612.00,93.11
3611.00,92.98
3610.00,92.83
3609.00,92.69
3608.00,92.54
3607.00,92.40
3606.00,92.26
3605.00,92.12
3604.00,91.98
3603.00,91.83
3602.00,91.69
3601.00,91.54
3600.00,91.40
3599.00,91.25
3598.00,91.11
3597.00,90.96
3596.00,90.80
3595.00,90.64
3594.00,90.48
3593.00,90.33
3592.00,90.19
3591.00,90.04
3590.00,89.88
3589.00,89.71
3588.00,89.54
3587.00,89.36
3586.00,89.19
3585.00,89.02
3584.00,88.86
3583.00,88.69
3582.00,88.52
3581.00,88.35
3580.00,88.19
3579.00,88.02
3578.00,87.84
3577.00,87.67
3576.00,87.49
3575.00,87.32
3574.00,87.14
3573.00,86.97
3572.00,86.81
3571.00,86.65
3570.00,86.49
3569.00,86.31
3568.00,86.11
3567.00,85.90
3566.00,85.70
3565.00,85.50
3564.00,85.31
3563.00,85.12
3562.00,84.94
3561.00,84.75
3560.00,84.57
3559.00,84.38
3558.00,84.20
3557.00,84.02
3556.00,83.83
3555.00,83.64
3554.00,83.45
3553.00,83.25
3552.00,83.05
3551.00,82.87
3550.00,82.68
3549.00,82.50
3548.00,82.31
3547.00,82.11
3546.00,81.91
3545.00,81.71
3544.00,81.51
3543.00,81.31
3542.00,81.12
3541.00,80.93
3540.00,80.73
3539.00,80.54
3538.00,80.34
3537.00,80.14
3536.00,79.94
3535.00,79.75
3534.00,79.56
3533.00,79.37
3532.00,79.18
3531.00,78.98
3530.00,78.79
3529.00,78.60
3528.00,78.41
3527.00,78.21
3526.00,78.01
3525.00,77.81
3524.00,77.61
3523.00,77.41
3522.00,77.22
3521.00,77.03
3520.00,76.84
3519.00,76.65
3518.00,76.45
3517.00,76.25
3516.00,76.06
3515.00,75.86
3514.00,75.67
3513.00,75.48
3512.00,75.28
3511.00,75.09
3510.00,74.90
3509.00,74.70
3508.00,74.51
3507.00,74.32
3506.00,74.12
3505.00,73.93
3504.00,73.73
3503.00,73.54
3502.00,73.35
3501.00,73.16
3500.00,72.97
3499.00,72.78
3498.00,72.60
3497.00,72.41
3496.00,72.22
3495.00,72.03
3494.00,71.84
3493.00,71.65
3492.00,71.46
3491.00,71.28
3490.00,71.09
3489.00,70.91
3488.00,70.72
3487.00,70.54
3486.00,70.35
3485.00,70.17
3484.00,69.98
3483.00,69.79
3482.00,69.61
3481.00,69.42
3480.00,69.24
3479.00,69.07
3478.00,68.90
3477.00,68.72
3476.00,68.54
3475.00,68.36
3474.00,68.18
3473.00,67.99
3472.00,67.81
3471.00,67.62
3470.00,67.44
3469.00,67.26
3468.00,67.09
3467.00,66.91
3466.00,66.75
3465.00,66.58
3464.00,66.41
3463.00,66.23
3462.00,66.06
3461.00,65.88
3460.00,65.71
3459.00,65.54
3458.00,65.36
3457.00,65.20
3456.00,65.03
3455.00,64.87
3454.00,64.70
3453.00,64.54
3452.00,64.37
3451.00,64.20
3450.00,64.04
3449.00,63.87
3448.00,63.70
3447.00,63.54
3446.00,63.37
3445.00,63.20
3444.00,63.03
3443.00,62.87
3442.00,62.71
3441.00,62.55
3440.00,62.39
3439.00,62.23
3438.00,62.07
3437.00,61.91
3436.00,61.75
3435.00,61.60
3434.00,61.45
3433.00,61.29
3432.00,61.14
3431.00,60.99
3430.00,60.83
3429.00,60.68
3428.00,60.53
3427.00,60.38
3426.00,60.23
3425.00,60.09
3424.00,59.94
3423.00,59.79
3422.00,59.65
3421.00,59.50
3420.00,59.35
3419.00,59.20
3418.00,59.05
3417.00,58.91
3416.00,58.77
3415.00,58.62
3414.00,58.49
3413.00,58.35
3412.00,58.21
3411.00,58.07
3410.00,57.94
3409.00,57.80
3408.00,57.67
3407.00,57.54
3406.00,57.41
3405.00,57.27
3404.00,57.14
3403.00,57.00
3402.00,56.87
3401.00,56.74
3400.00,56.62
3399.00,56.50
3398.00,56.38
3397.00,56.26
3396.00,56.13
3395.00,56.01
3394.00,55.89
3393.00,55.77
3392.00,55.66
3391.00,55.55
3390.00,55.44
3389.00,55.32
3388.00,55.21
3387.00,55.10
3386.00,54.99
3385.00,54.88
3384.00,54.77
3383.00,54.67
3382.00,54.56
3381.00,54.46
3380.00,54.36
3379.00,54.26
3378.00,54.17
3377.00,54.07
3376.00,53.97
3375.00,53.88
3374.00,53.77
3373.00,53.67
3372.00,53.56
3371.00,53.46
3370.00,53.37
3369.00,53.29
3368.00,53.21
3367.00,53.13
3366.00,53.05
3365.00,52.97
3364.00,52.89
3363.00,52.81
3362.00,52.73
3361.00,52.66
3360.00,52.59
3359.00,52.51
3358.00,52.44
3357.00,52.36
3356.00,52.28
3355.00,52.20
3354.00,52.13
3353.00,52.05
3352.00,51.98
3351.00,51.91
3350.00,51.85
3349.00,51.80
3348.00,51.74
3347.00,51.68
3346.00,51.62
3345.00,51.56
3344.00,51.50
3343.00,51.45
3342.00,51.39
3341.00,51.34
3340.00,51.28
3339.00,51.23
3338.00,51.18
3337.00,51.13
3336.00,51.08
3335.00,51.03
3334.00,50.98
3333.00,50.93
3332.00,50.89
3331.00,50.84
3330.00,50.80
3329.00,50.76
3328.00,50.71
3327.00,50.67
3326.00,50.63
3325.00,50.59
3324.00,50.55
3323.00,50.52
3322.00,50.48
3321.00,50.44
3320.00,50.40
3319.00,50.36
3318.00,50.33
3317.00,50.29
3316.00,50.26
3315.00,50.23
3314.00,50.19
3313.00,50.16
3312.00,50.13
3311.00,50.10
3310.00,50.06
3309.00,50.03
3308.00,50.00
3307.00,49.98
3306.00,49.95
3305.00,49.93
3304.00,49.91
3303.00,49.89
3302.00,49.88
3301.00,49.86
3300.00,49.83
3299.00,49.81
3298.00,49.79
3297.00,49.77
3296.00,49.75
3295.00,49.73
3294.00,49.71
3293.00,49.70
3292.00,49.68
3291.00,49.67
3290.00,49.66
3289.00,49.65
3288.00,49.64
3287.00,49.63
3286.00,49.62
3285.00,49.60
3284.00,49.59
3283.00,49.58
3282.00,49.58
3281.00,49.57
3280.00,49.57
3279.00,49.57
3278.00,49.56
3277.00,49.56
3276.00,49.55
3275.00,49.54
3274.00,49.54
3273.00,49.53
3272.00,49.53
3271.00,49.53
3270.00,49.54
3269.00,49.55
3268.00,49.56
3267.00,49.57
3266.00,49.58
3265.00,49.60
3264.00,49.61
3263.00,49.62
3262.00,49.63
3261.00,49.64
3260.00,49.65
3259.00,49.67
3258.00,49.69
3257.00,49.70
3256.00,49.72
3255.00,49.75
3254.00,49.77
3253.00,49.80
3252.00,49.83
3251.00,49.85
3250.00,49.88
3249.00,49.91
3248.00,49.94
3247.00,49.98
3246.00,50.02
3245.00,50.06
3244.00,50.09
3243.00,50.13
3242.00,50.17
3241.00,50.21
3240.00,50.26
3239.00,50.30
3238.00,50.35
3237.00,50.39
3236.00,50.44
3235.00,50.49
3234.00,50.54
3233.00,50.59
3232.00,50.66
3231.00,50.72
3230.00,50.78
3229.00,50.85
3228.00,50.91
3227.00,50.98
3226.00,51.05
3225.00,51.12
3224.00,51.19
3223.00,51.26
3222.00,51.33
3221.00,51.41
3220.00,51.48
3219.00,51.57
3218.00,51.65
3217.00,51.74
3216.00,51.83
3215.00,51.91
3214.00,52.00
3213.00,52.08
3212.00,52.17
3211.00,52.26
3210.00,52.36
3209.00,52.46
3208.00,52.57
3207.00,52.67
3206.00,52.78
3205.00,52.88
3204.00,52.99
3203.00,53.09
3202.00,53.20
3201.00,53.31
3200.00,53.42
3199.00,53.53
3198.00,53.64
3197.00,53.76
3196.00,53.88
3195.00,54.01
3194.00,54.13
3193.00,54.25
3192.00,54.37
3191.00,54.49
3190.00,54.61
3189.00,54.75
3188.00,54.88
3187.00,55.01
3186.00,55.15
3185.00,55.28
3184.00,55.42
3183.00,55.56
3182.00,55.70
3181.00,55.84
3180.00,55.99
3179.00,56.13
3178.00,56.28
3177.00,56.42
3176.00,56.57
3175.00,56.72
3174.00,56.87
3173.00,57.02
3172.00,57.17
3171.00,57.32
3170.00,57.48
3169.00,57.64
3168.00,57.81
3167.00,57.97
3166.00,58.13
3165.00,58.29
3164.00,58.45
3163.00,58.62
3162.00,58.79
3161.00,58.96
3160.00,59.12
3159.00,59.29
3158.00,59.46
3157.00,59.63
3156.00,59.80
3155.00,59.97
3154.00,60.14
3153.00,60.32
3152.00,60.49
3151.00,60.67
3150.00,60.85
3149.00,61.03
3148.00,61.22
3147.00,61.41
3146.00,61.59
3145.00,61.77
3144.00,61.95
3143.00,62.13
3142.00,62.31
3141.00,62.49
3140.00,62.68
3139.00,62.86
3138.00,63.05
3137.00,63.25
3136.00,63.44
3135.00,63.64
3134.00,63.83
3133.00,64.02
3132.00,64.20
3131.00,64.39
3130.00,64.57
3129.00,64.77
3128.00,64.97
3127.00,65.16
3126.00,65.36
3125.00,65.55
3124.00,65.74
3123.00,65.93
3122.00,66.11
3121.00,66.30
3120.00,66.50
3119.00,66.69
3118.00,66.89
3117.00,67.08
3116.00,67.28
3115.00,67.47
3114.00,67.67
3113.00,67.87
3112.00,68.07
3111.00,68.27
3110.00,68.47
3109.00,68.66
3108.00,68.86
3107.00,69.06
3106.00,69.26
3105.00,69.46
3104.00,69.66
3103.00,69.86
3102.00,70.05
3101.00,70.24
3100.00,70.44
3099.00,70.63
3098.00,70.83
3097.00,71.03
3096.00,71.22
3095.00,71.42
3094.00,71.61
3093.00,71.80
3092.00,71.99
3091.00,72.18
3090.00,72.37
3089.00,72.57
3088.00,72.77
3087.00,72.96
3086.00,73.15
3085.00,73.34
3084.00,73.52
3083.00,73.71
3082.00,73.90
3081.00,74.09
3080.00,74.28
3079.00,74.46
3078.00,74.65
3077.00,74.84
3076.00,75.03
3075.00,75.21
3074.00,75.40
3073.00,75.59
3072.00,75.78
3071.00,75.96
3070.00,76.15
3069.00,76.33
3068.00,76.50
3067.00,76.68
3066.00,76.86
3065.00,77.04
3064.00,77.21
3063.00,77.39
3062.00,77.57
3061.00,77.75
3060.00,77.93
3059.00,78.10
3058.00,78.28
3057.00,78.45
3056.00,78.62
3055.00,78.79
3054.00,78.95
3053.00,79.12
3052.00,79.28
3051.00,79.45
3050.00,79.62
3049.00,79.78
3048.00,79.94
3047.00,80.11
3046.00,80.26
3045.00,80.42
3044.00,80.58
3043.00,80.74
3042.00,80.90
3041.00,81.05
3040.00,81.21
3039.00,81.36
3038.00,81.51
3037.00,81.66
3036.00,81.81
3035.00,81.96
3034.00,82.10
3033.00,82.25
3032.00,82.39
3031.00,82.53
3030.00,82.67
3029.00,82.81
3028.00,82.94
3027.00,83.07
3026.00,83.21
3025.00,83.34
3024.00,83.47
3023.00,83.59
3022.00,83.71
3021.00,83.82
3020.00,83.94
3019.00,84.05
3018.00,84.17
3017.00,84.28
3016.00,84.38
3015.00,84.49
3014.00,84.59
3013.00,84.68
3012.00,84.78
3011.00,84.86
3010.00,84.95
3009.00,85.03
3008.00,85.10
3007.00,85.18
3006.00,85.25
3005.00,85.31
3004.00,85.37
3003.00,85.43
3002.00,85.47
3001.00,85.52
3000.00,85.56
2999.00,85.59
2998.00,85.62
2997.00,85.64
2996.00,85.65
2995.00,85.66
2994.00,85.66
2993.00,85.66
2992.00,85.64
2991.00,85.62
2990.00,85.60
2989.00,85.57
2988.00,85.53
2987.00,85.50
2986.00,85.46
2985.00,85.42
2984.00,85.38
2983.00,85.34
2982.00,85.29
2981.00,85.24
2980.00,85.19
2979.00,85.13
2978.00,85.08
2977.00,85.02
2976.00,84.97
2975.00,84.91
2974.00,84.84
2973.00,84.78
2972.00,84.72
2971.00,84.66
2970.00,84.59
2969.00,84.52
2968.00,84.45
2967.00,84.37
2966.00,84.28
2965.00,84.19
2964.00,84.08
2963.00,83.97
2962.00,83.84
2961.00,83.70
2960.00,83.55
2959.00,83.40
2958.00,83.24
2957.00,83.07
2956.00,82.90
2955.00,82.72
2954.00,82.54
2953.00,82.36
2952.00,82.17
2951.00,81.99
2950.00,81.80
2949.00,81.61
2948.00,81.43
2947.00,81.26
2946.00,81.09
2945.00,80.94
2944.00,80.79
2943.00,80.64
2942.00,80.51
2941.00,80.39
2940.00,80.28
2939.00,80.20
2938.00,80.12
2937.00,80.06
2936.00,80.02
2935.00,79.98
2934.00,79.96
2933.00,79.95
2932.00,79.95
2931.00,79.97
2930.00,80.00
2929.00,80.04
2928.00,80.08
2927.00,80.14
2926.00,80.21
2925.00,80.28
2924.00,80.36
2923.00,80.43
2922.00,80.51
2921.00,80.58
2920.00,80.66
2919.00,80.73
2918.00,80.81
2917.00,80.88
2916.00,80.96
2915.00,81.03
2914.00,81.09
2913.00,81.15
2912.00,81.21
2911.00,81.26
2910.00,81.31
2909.00,81.35
2908.00,81.39
2907.00,81.43
2906.00,81.46
2905.00,81.48
2904.00,81.51
2903.00,81.52
2902.00,81.54
2901.00,81.55
2900.00,81.56
2899.00,81.56
2898.00,81.56
2897.00,81.56
2896.00,81.57
2895.00,81.57
2894.00,81.58
2893.00,81.58
2892.00,81.58
2891.00,81.59
2890.00,81.60
2889.00,81.61
2888.00,81.64
2887.00,81.67
2886.00,81.70
2885.00,81.75
2884.00,81.81
2883.00,81.88
2882.00,81.96
2881.00,82.05
2880.00,82.16
2879.00,82.27
2878.00,82.38
2877.00,82.51
2876.00,82.64
2875.00,82.77
2874.00,82.91
2873.00,83.05
2872.00,83.19
2871.00,83.33
2870.00,83.47
2869.00,83.62
2868.00,83.76
2867.00,83.91
2866.00,84.05
2865.00,84.19
2864.00,84.33
2863.00,84.47
2862.00,84.60
2861.00,84.73
2860.00,84.86
2859.00,84.99
2858.00,85.11
2857.00,85.24
2856.00,85.37
2855.00,85.49
2854.00,85.62
2853.00,85.74
2852.00,85.86
2851.00,85.98
2850.00,86.10
2849.00,86.22
2848.00,86.34
2847.00,86.46
2846.00,86.58
2845.00,86.70
2844.00,86.81
2843.00,86.92
2842.00,87.04
2841.00,87.15
2840.00,87.26
2839.00,87.37
2838.00,87.48
2837.00,87.58
2836.00,87.69
2835.00,87.79
2834.00,87.89
2833.00,87.99
2832.00,88.09
2831.00,88.18
2830.00,88.27
2829.00,88.37
2828.00,88.45
2827.00,88.54
2826.00,88.62
2825.00,88.71
2824.00,88.79
2823.00,88.88
2822.00,88.97
2821.00,89.05
2820.00,89.13
2819.00,89.21
2818.00,89.29
2817.00,89.37
2816.00,89.44
2815.00,89.51
2814.00,89.58
2813.00,89.65
2812.00,89.72
2811.00,89.79
2810.00,89.86
2809.00,89.92
2808.00,89.99
2807.00,90.06
2806.00,90.12
2805.00,90.19
2804.00,90.25
2803.00,90.31
2802.00,90.37
2801.00,90.43
2800.00,90.48
2799.00,90.54
2798.00,90.59
2797.00,90.64
2796.00,90.70
2795.00,90.76
2794.00,90.82
2793.00,90.87
2792.00,90.93
2791.00,90.98
2790.00,91.02
2789.00,91.07
2788.00,91.11
2787.00,91.16
2786.00,91.20
2785.00,91.25
2784.00,91.30
2783.00,91.34
2782.00,91.39
2781.00,91.43
2780.00,91.47
2779.00,91.51
2778.00,91.56
2777.00,91.60
2776.00,91.64
2775.00,91.68
2774.00,91.72
2773.00,91.75
2772.00,91.79
2771.00,91.83
2770.00,91.87
2769.00,91.90
2768.00,91.93
2767.00,91.96
2766.00,91.99
2765.00,92.03
2764.00,92.06
2763.00,92.09
2762.00,92.13
2761.00,92.15
2760.00,92.18
2759.00,92.21
2758.00,92.24
2757.00,92.27
2756.00,92.30
2755.00,92.32
2754.00,92.35
2753.00,92.37
2752.00,92.40
2751.00,92.42
2750.00,92.45
2749.00,92.47
2748.00,92.49
2747.00,92.50
2746.00,92.52
2745.00,92.54
2744.00,92.56
2743.00,92.58
2742.00,92.61
2741.00,92.62
2740.00,92.64
2739.00,92.66
2738.00,92.68
2737.00,92.71
2736.00,92.73
2735.00,92.75
2734.00,92.76
2733.00,92.78
2732.00,92.80
2731.00,92.81
2730.00,92.83
2729.00,92.84
2728.00,92.86
2727.00,92.87
2726.00,92.89
2725.00,92.91
2724.00,92.92
2723.00,92.94
2722.00,92.96
2721.00,92.98
2720.00,93.00
2719.00,93.02
2718.00,93.05
2717.00,93.07
2716.00,93.09
2715.00,93.12
2714.00,93.14
2713.00,93.16
2712.00,93.19
2711.00,93.21
2710.00,93.23
2709.00,93.24
2708.00,93.26
2707.00,93.28
2706.00,93.31
2705.00,93.33
2704.00,93.35
2703.00,93.37
2702.00,93.40
2701.00,93.42
2700.00,93.44
2699.00,93.47
2698.00,93.50
2697.00,93.52
2696.00,93.55
2695.00,93.58
2694.00,93.60
2693.00,93.63
2692.00,93.66
2691.00,93.69
2690.00,93.71
2689.00,93.74
2688.00,93.77
2687.00,93.79
2686.00,93.82
2685.00,93.85
2684.00,93.88
2683.00,93.91
2682.00,93.94
2681.00,93.97
2680.00,94.00
2679.00,94.04
2678.00,94.07
2677.00,94.10
2676.00,94.12
2675.00,94.15
2674.00,94.19
2673.00,94.22
2672.00,94.25
2671.00,94.28
2670.00,94.31
2669.00,94.35
2668.00,94.38
2667.00,94.41
2666.00,94.44
2665.00,94.47
2664.00,94.50
2663.00,94.54
2662.00,94.57
2661.00,94.60
2660.00,94.63
2659.00,94.67
2658.00,94.70
2657.00,94.74
2656.00,94.77
2655.00,94.80
2654.00,94.83
2653.00,94.87
2652.00,94.90
2651.00,94.93
2650.00,94.96
2649.00,94.98
2648.00,95.01
2647.00,95.05
2646.00,95.08
2645.00,95.11
2644.00,95.15
2643.00,95.18
2642.00,95.20
2641.00,95.23
2640.00,95.26
2639.00,95.29
2638.00,95.32
2637.00,95.35
2636.00,95.38
2635.00,95.40
2634.00,95.43
2633.00,95.46
2632.00,95.48
2631.00,95.51
2630.00,95.54
2629.00,95.57
2628.00,95.59
2627.00,95.62
2626.00,95.64
2625.00,95.67
2624.00,95.69
2623.00,95.71
2622.00,95.74
2621.00,95.75
2620.00,95.77
2619.00,95.80
2618.00,95.82
2617.00,95.85
2616.00,95.88
2615.00,95.90
2614.00,95.92
2613.00,95.94
2612.00,95.96
2611.00,95.98
2610.00,96.00
2609.00,96.02
2608.00,96.04
2607.00,96.05
2606.00,96.07
2605.00,96.09
2604.00,96.11
2603.00,96.13
2602.00,96.15
2601.00,96.17
2600.00,96.18
2599.00,96.19
2598.00,96.21
2597.00,96.23
2596.00,96.25
2595.00,96.26
2594.00,96.28
2593.00,96.29
2592.00,96.31
2591.00,96.32
2590.00,96.34
2589.00,96.35
2588.00,96.37
2587.00,96.38
2586.00,96.40
2585.00,96.41
2584.00,96.42
2583.00,96.44
2582.00,96.45
2581.00,96.47
2580.00,96.48
2579.00,96.50
2578.00,96.51
2577.00,96.53
2576.00,96.54
2575.00,96.56
2574.00,96.56
2573.00,96.57
2572.00,96.57
2571.00,96.58
2570.00,96.59
2569.00,96.60
2568.00,96.61
2567.00,96.63
2566.00,96.64
2565.00,96.65
2564.00,96.65
2563.00,96.66
2562.00,96.67
2561.00,96.67
2560.00,96.68
2559.00,96.69
2558.00,96.71
2557.00,96.72
2556.00,96.73
2555.00,96.74
2554.00,96.75
2553.00,96.76
2552.00,96.76
2551.00,96.78
2550.00,96.79
2549.00,96.79
2548.00,96.80
2547.00,96.80
2546.00,96.81
2545.00,96.82
2544.00,96.83
2543.00,96.84
2542.00,96.85
2541.00,96.86
2540.00,96.87
2539.00,96.87
2538.00,96.87
2537.00,96.88
2536.00,96.88
2535.00,96.89
2534.00,96.90
2533.00,96.92
2532.00,96.93
2531.00,96.94
2530.00,96.95
2529.00,96.96
2528.00,96.96
2527.00,96.97
2526.00,96.98
2525.00,96.99
2524.00,97.00
2523.00,97.01
2522.00,97.02
2521.00,97.02
2520.00,97.03
2519.00,97.03
2518.00,97.04
2517.00,97.05
2516.00,97.06
2515.00,97.07
2514.00,97.08
2513.00,97.09
2512.00,97.09
2511.00,97.10
2510.00,97.10
2509.00,97.11
2508.00,97.12
2507.00,97.13
2506.00,97.14
2505.00,97.15
2504.00,97.16
2503.00,97.17
2502.00,97.18
2501.00,97.19
2500.00,97.19
2499.00,97.19
2498.00,97.20
2497.00,97.21
2496.00,97.22
2495.00,97.23
2494.00,97.24
2493.00,97.25
2492.00,97.27
2491.00,97.29
2490.00,97.30
2489.00,97.32
2488.00,97.32
2487.00,97.33
2486.00,97.34
2485.00,97.35
2484.00,97.36
2483.00,97.38
2482.00,97.39
2481.00,97.40
2480.00,97.42
2479.00,97.43
2478.00,97.44
2477.00,97.45
2476.00,97.46
2475.00,97.47
2474.00,97.48
2473.00,97.50
2472.00,97.51
2471.00,97.53
2470.00,97.54
2469.00,97.56
2468.00,97.57
2467.00,97.58
2466.00,97.60
2465.00,97.61
2464.00,97.61
2463.00,97.62
2462.00,97.64
2461.00,97.66
2460.00,97.68
2459.00,97.70
2458.00,97.72
2457.00,97.74
2456.00,97.75
2455.00,97.76
2454.00,97.78
2453.00,97.79
2452.00,97.80
2451.00,97.81
2450.00,97.82
2449.00,97.84
2448.00,97.85
2447.00,97.86
2446.00,97.87
2445.00,97.88
2444.00,97.89
2443.00,97.90
2442.00,97.92
2441.00,97.93
2440.00,97.95
2439.00,97.96
2438.00,97.97
2437.00,97.98
2436.00,97.99
2435.00,98.00
2434.00,98.02
2433.00,98.03
2432.00,98.04
2431.00,98.05
2430.00,98.06
2429.00,98.07
2428.00,98.08
2427.00,98.09
2426.00,98.10
2425.00,98.11
2424.00,98.12
2423.00,98.14
2422.00,98.16
2421.00,98.17
2420.00,98.18
2419.00,98.18
2418.00,98.19
2417.00,98.19
2416.00,98.20
2415.00,98.21
2414.00,98.21
2413.00,98.22
2412.00,98.23
2411.00,98.24
2410.00,98.25
2409.00,98.26
2408.00,98.27
2407.00,98.28
2406.00,98.29
2405.00,98.29
2404.00,98.30
2403.00,98.30
2402.00,98.30
2401.00,98.31
2400.00,98.31
2399.00,98.32
2398.00,98.33
2397.00,98.34
2396.00,98.34
2395.00,98.35
2394.00,98.36
2393.00,98.36
2392.00,98.37
2391.00,98.37
2390.00,98.37
2389.00,98.38
2388.00,98.37
2387.00,98.37
2386.00,98.37
2385.00,98.36
2384.00,98.36
2383.00,98.36
2382.00,98.37
2381.00,98.38
2380.00,98.39
2379.00,98.40
2378.00,98.41
2377.00,98.43
2376.00,98.44
2375.00,98.45
2374.00,98.46
2373.00,98.45
2372.00,98.44
2371.00,98.42
2370.00,98.42
2369.00,98.42
2368.00,98.42
2367.00,98.42
2366.00,98.43
2365.00,98.43
2364.00,98.45
2363.00,98.46
2362.00,98.47
2361.00,98.45
2360.00,98.41
2359.00,98.40
2358.00,98.41
2357.00,98.43
2356.00,98.45
2355.00,98.46
2354.00,98.46
2353.00,98.46
2352.00,98.46
2351.00,98.46
2350.00,98.46
2349.00,98.46
2348.00,98.46
2347.00,98.46
2346.00,98.46
2345.00,98.46
2344.00,98.44
2343.00,98.43
2342.00,98.43
2341.00,98.45
2340.00,98.46
2339.00,98.49
2338.00,98.50
2337.00,98.51
2336.00,98.52
2335.00,98.52
2334.00,98.51
2333.00,98.50
2332.00,98.48
2331.00,98.46
2330.00,98.46
2329.00,98.45
2328.00,98.45
2327.00,98.45
2326.00,98.45
2325.00,98.45
2324.00,98.45
2323.00,98.46
2322.00,98.46
2321.00,98.46
2320.00,98.45
2319.00,98.44
2318.00,98.43
2317.00,98.43
2316.00,98.43
2315.00,98.43
2314.00,98.44
2313.00,98.43
2312.00,98.42
2311.00,98.41
2310.00,98.41
2309.00,98.40
2308.00,98.40
2307.00,98.39
2306.00,98.39
2305.00,98.39
2304.00,98.38
2303.00,98.37
2302.00,98.37
2301.00,98.37
2300.00,98.37
2299.00,98.38
2298.00,98.38
2297.00,98.38
2296.00,98.38
2295.00,98.37
2294.00,98.37
2293.00,98.37
2292.00,98.37
2291.00,98.37
2290.00,98.37
2289.00,98.36
2288.00,98.36
2287.00,98.36
2286.00,98.36
2285.00,98.36
2284.00,98.36
2283.00,98.35
2282.00,98.34
2281.00,98.33
2280.00,98.32
2279.00,98.32
2278.00,98.32
2277.00,98.31
2276.00,98.31
2275.00,98.30
2274.00,98.30
2273.00,98.30
2272.00,98.29
2271.00,98.29
2270.00,98.30
2269.00,98.30
2268.00,98.30
2267.00,98.30
2266.00,98.30
2265.00,98.30
2264.00,98.29
2263.00,98.29
2262.00,98.29
2261.00,98.29
2260.00,98.28
2259.00,98.27
2258.00,98.26
2257.00,98.25
2256.00,98.24
2255.00,98.24
2254.00,98.24
2253.00,98.24
2252.00,98.24
2251.00,98.24
2250.00,98.24
2249.00,98.22
2248.00,98.20
2247.00,98.19
2246.00,98.19
2245.00,98.19
2244.00,98.19
2243.00,98.19
2242.00,98.19
2241.00,98.18
2240.00,98.16
2239.00,98.15
2238.00,98.13
2237.00,98.12
2236.00,98.11
2235.00,98.11
2234.00,98.12
2233.00,98.12
2232.00,98.12
2231.00,98.12
2230.00,98.13
2229.00,98.13
2228.00,98.13
2227.00,98.12
2226.00,98.12
2225.00,98.11
2224.00,98.09
2223.00,98.09
2222.00,98.08
2221.00,98.08
2220.00,98.08
2219.00,98.09
2218.00,98.09
2217.00,98.07
2216.00,98.06
2215.00,98.04
2214.00,98.03
2213.00,98.02
2212.00,98.01
2211.00,98.01
2210.00,98.03
2209.00,98.04
2208.00,98.04
2207.00,98.03
2206.00,98.00
2205.00,97.98
2204.00,97.97
2203.00,97.97
2202.00,97.98
2201.00,97.98
2200.00,97.98
2199.00,97.96
2198.00,97.94
2197.00,97.92
2196.00,97.91
2195.00,97.91
2194.00,97.91
2193.00,97.91
2192.00,97.89
2191.00,97.88
2190.00,97.88
2189.00,97.87
2188.00,97.86
2187.00,97.87
2186.00,97.87
2185.00,97.85
2184.00,97.81
2183.00,97.79
2182.00,97.78
2181.00,97.77
2180.00,97.76
2179.00,97.77
2178.00,97.79
2177.00,97.80
2176.00,97.80
2175.00,97.80
2174.00,97.80
2173.00,97.80
2172.00,97.80
2171.00,97.80
2170.00,97.81
2169.00,97.81
2168.00,97.80
2167.00,97.78
2166.00,97.77
2165.00,97.76
2164.00,97.75
2163.00,97.76
2162.00,97.78
2161.00,97.79
2160.00,97.80
2159.00,97.80
2158.00,97.78
2157.00,97.75
2156.00,97.72
2155.00,97.71
2154.00,97.72
2153.00,97.72
2152.00,97.71
2151.00,97.69
2150.00,97.68
2149.00,97.67
2148.00,97.65
2147.00,97.63
2146.00,97.63
2145.00,97.63
2144.00,97.63
2143.00,97.63
2142.00,97.63
2141.00,97.63
2140.00,97.63
2139.00,97.63
2138.00,97.63
2137.00,97.61
2136.00,97.60
2135.00,97.60
2134.00,97.61
2133.00,97.60
2132.00,97.59
2131.00,97.57
2130.00,97.56
2129.00,97.57
2128.00,97.57
2127.00,97.58
2126.00,97.59
2125.00,97.59
2124.00,97.59
2123.00,97.59
2122.00,97.60
2121.00,97.60
2120.00,97.59
2119.00,97.60
2118.00,97.59
2117.00,97.59
2116.00,97.57
2115.00,97.55
2114.00,97.55
2113.00,97.54
2112.00,97.55
2111.00,97.56
2110.00,97.58
2109.00,97.59
2108.00,97.58
2107.00,97.58
2106.00,97.59
2105.00,97.60
2104.00,97.61
2103.00,97.62
2102.00,97.62
2101.00,97.63
2100.00,97.63
2099.00,97.64
2098.00,97.65
2097.00,97.66
2096.00,97.66
2095.00,97.66
2094.00,97.66
2093.00,97.66
2092.00,97.67
2091.00,97.68
2090.00,97.69
2089.00,97.70
2088.00,97.71
2087.00,97.71
2086.00,97.72
2085.00,97.71
2084.00,97.71
2083.00,97.72
2082.00,97.73
2081.00,97.74
2080.00,97.74
2079.00,97.76
2078.00,97.78
2077.00,97.79
2076.00,97.80
2075.00,97.80
2074.00,97.80
2073.00,97.80
2072.00,97.79
2071.00,97.79
2070.00,97.79
2069.00,97.79
2068.00,97.79
2067.00,97.80
2066.00,97.81
2065.00,97.82
2064.00,97.82
2063.00,97.82
2062.00,97.83
2061.00,97.85
2060.00,97.87
2059.00,97.88
2058.00,97.89
2057.00,97.88
2056.00,97.88
2055.00,97.89
2054.00,97.91
2053.00,97.92
2052.00,97.93
2051.00,97.94
2050.00,97.97
2049.00,97.98
2048.00,97.98
2047.00,97.98
2046.00,97.99
2045.00,98.00
2044.00,98.00
2043.00,98.02
2042.00,98.05
2041.00,98.08
2040.00,98.08
2039.00,98.08
2038.00,98.09
2037.00,98.10
2036.00,98.11
2035.00,98.12
2034.00,98.13
2033.00,98.11
2032.00,98.09
2031.00,98.08
2030.00,98.10
2029.00,98.11
2028.00,98.12
2027.00,98.12
2026.00,98.13
2025.00,98.14
2024.00,98.16
2023.00,98.18
2022.00,98.20
2021.00,98.21
2020.00,98.21
2019.00,98.22
2018.00,98.22
2017.00,98.22
2016.00,98.20
2015.00,98.20
2014.00,98.22
2013.00,98.24
2012.00,98.27
2011.00,98.29
2010.00,98.31
2009.00,98.31
2008.00,98.29
2007.00,98.27
2006.00,98.26
2005.00,98.25
2004.00,98.25
2003.00,98.25
2002.00,98.26
2001.00,98.27
2000.00,98.29
1999.00,98.31
1998.00,98.34
1997.00,98.35
1996.00,98.36
1995.00,98.38
1994.00,98.39
1993.00,98.40
1992.00,98.39
1991.00,98.38
1990.00,98.39
1989.00,98.38
1988.00,98.38
1987.00,98.38
1986.00,98.40
1985.00,98.40
1984.00,98.40
1983.00,98.41
1982.00,98.41
1981.00,98.41
1980.00,98.40
1979.00,98.40
1978.00,98.42
1977.00,98.43
1976.00,98.44
1975.00,98.44
1974.00,98.44
1973.00,98.45
1972.00,98.45
1971.00,98.45
1970.00,98.44
1969.00,98.42
1968.00,98.40
1967.00,98.41
1966.00,98.43
1965.00,98.45
1964.00,98.45
1963.00,98.44
1962.00,98.44
1961.00,98.44
1960.00,98.43
1959.00,98.43
1958.00,98.45
1957.00,98.46
1956.00,98.46
1955.00,98.47
1954.00,98.47
1953.00,98.46
1952.00,98.44
1951.00,98.43
1950.00,98.43
1949.00,98.44
1948.00,98.45
1947.00,98.46
1946.00,98.47
1945.00,98.47
1944.00,98.47
1943.00,98.47
1942.00,98.47
1941.00,98.46
1940.00,98.46
1939.00,98.47
1938.00,98.48
1937.00,98.48
1936.00,98.48
1935.00,98.48
1934.00,98.49
1933.00,98.49
1932.00,98.48
1931.00,98.48
1930.00,98.49
1929.00,98.50
1928.00,98.50
1927.00,98.50
1926.00,98.49
1925.00,98.50
1924.00,98.51
1923.00,98.52
1922.00,98.52
1921.00,98.50
1920.00,98.48
1919.00,98.47
1918.00,98.48
1917.00,98.48
1916.00,98.48
1915.00,98.49
1914.00,98.50
1913.00,98.50
1912.00,98.49
1911.00,98.49
1910.00,98.50
1909.00,98.50
1908.00,98.49
1907.00,98.49
1906.00,98.49
1905.00,98.48
1904.00,98.48
1903.00,98.48
1902.00,98.49
1901.00,98.49
1900.00,98.49
1899.00,98.49
1898.00,98.49
1897.00,98.49
1896.00,98.49
1895.00,98.50
1894.00,98.50
1893.00,98.49
1892.00,98.48
1891.00,98.48
1890.00,98.48
1889.00,98.48
1888.00,98.47
1887.00,98.47
1886.00,98.48
1885.00,98.48
1884.00,98.47
1883.00,98.46
1882.00,98.46
1881.00,98.47
1880.00,98.46
1879.00,98.46
1878.00,98.46
1877.00,98.46
1876.00,98.46
1875.00,98.46
1874.00,98.45
1873.00,98.44
1872.00,98.43
1871.00,98.42
1870.00,98.43
1869.00,98.44
1868.00,98.45
1867.00,98.45
1866.00,98.46
1865.00,98.45
1864.00,98.44
1863.00,98.44
1862.00,98.44
1861.00,98.44
1860.00,98.42
1859.00,98.42
1858.00,98.42
1857.00,98.42
1856.00,98.42
1855.00,98.42
1854.00,98.42
1853.00,98.41
1852.00,98.40
1851.00,98.40
1850.00,98.40
1849.00,98.40
1848.00,98.39
1847.00,98.37
1846.00,98.35
1845.00,98.34
1844.00,98.33
1843.00,98.34
1842.00,98.35
1841.00,98.37
1840.00,98.38
1839.00,98.38
1838.00,98.39
1837.00,98.38
1836.00,98.37
1835.00,98.36
1834.00,98.35
1833.00,98.33
1832.00,98.31
1831.00,98.30
1830.00,98.31
1829.00,98.31
1828.00,98.30
1827.00,98.31
1826.00,98.32
1825.00,98.32
1824.00,98.31
1823.00,98.30
1822.00,98.31
1821.00,98.31
1820.00,98.30
1819.00,98.29
1818.00,98.29
1817.00,98.28
1816.00,98.27
1815.00,98.26
1814.00,98.26
1813.00,98.26
1812.00,98.25
1811.00,98.24
1810.00,98.23
1809.00,98.21
1808.00,98.19
1807.00,98.18
1806.00,98.17
1805.00,98.15
1804.00,98.13
1803.00,98.12
1802.00,98.11
1801.00,98.10
1800.00,98.08
1799.00,98.07
1798.00,98.07
1797.00,98.06
1796.00,98.04
1795.00,98.01
1794.00,97.99
1793.00,97.97
1792.00,97.95
1791.00,97.94
1790.00,97.93
1789.00,97.93
1788.00,97.92
1787.00,97.91
1786.00,97.90
1785.00,97.89
1784.00,97.87
1783.00,97.85
1782.00,97.85
1781.00,97.85
1780.00,97.84
1779.00,97.82
1778.00,97.81
1777.00,97.79
1776.00,97.76
1775.00,97.74
1774.00,97.73
1773.00,97.72
1772.00,97.69
1771.00,97.65
1770.00,97.63
1769.00,97.62
1768.00,97.62
1767.00,97.61
1766.00,97.59
1765.00,97.57
1764.00,97.55
1763.00,97.54
1762.00,97.53
1761.00,97.50
1760.00,97.47
1759.00,97.46
1758.00,97.45
1757.00,97.43
1756.00,97.40
1755.00,97.36
1754.00,97.34
1753.00,97.32
1752.00,97.29
1751.00,97.27
1750.00,97.25
1749.00,97.23
1748.00,97.20
1747.00,97.17
1746.00,97.15
1745.00,97.12
1744.00,97.07
1743.00,97.02
1742.00,96.96
1741.00,96.90
1740.00,96.84
1739.00,96.78
1738.00,96.72
1737.00,96.66
1736.00,96.60
1735.00,96.56
1734.00,96.52
1733.00,96.46
1732.00,96.40
1731.00,96.36
1730.00,96.33
1729.00,96.28
1728.00,96.21
1727.00,96.16
1726.00,96.11
1725.00,96.07
1724.00,96.01
1723.00,95.94
1722.00,95.87
1721.00,95.79
1720.00,95.72
1719.00,95.67
1718.00,95.63
1717.00,95.56
1716.00,95.47
1715.00,95.39
1714.00,95.32
1713.00,95.25
1712.00,95.18
1711.00,95.10
1710.00,95.02
1709.00,94.92
1708.00,94.81
1707.00,94.70
1706.00,94.59
1705.00,94.46
1704.00,94.31
1703.00,94.18
1702.00,94.04
1701.00,93.86
1700.00,93.68
1699.00,93.55
1698.00,93.48
1697.00,93.40
1696.00,93.24
1695.00,93.04
1694.00,92.86
1693.00,92.71
1692.00,92.56
1691.00,92.41
1690.00,92.23
1689.00,92.03
1688.00,91.83
1687.00,91.66
1686.00,91.48
1685.00,91.24
1684.00,90.91
1683.00,90.60
1682.00,90.39
1681.00,90.22
1680.00,90.04
1679.00,89.82
1678.00,89.59
1677.00,89.35
1676.00,89.06
1675.00,88.78
1674.00,88.53
1673.00,88.33
1672.00,88.13
1671.00,87.90
1670.00,87.65
1669.00,87.38
1668.00,87.14
1667.00,86.94
1666.00,86.76
1665.00,86.58
1664.00,86.36
1663.00,86.13
1662.00,85.90
1661.00,85.71
1660.00,85.52
1659.00,85.36
1658.00,85.19
1657.00,85.03
1656.00,84.87
1655.00,84.73
1654.00,84.58
1653.00,84.37
1652.00,84.18
1651.00,84.09
1650.00,84.05
1649.00,84.02
1648.00,83.98
1647.00,83.91
1646.00,83.83
1645.00,83.78
1644.00,83.76
1643.00,83.77
1642.00,83.79
1641.00,83.82
1640.00,83.84
1639.00,83.86
1638.00,83.90
1637.00,83.99
1636.00,84.10
1635.00,84.22
1634.00,84.35
1633.00,84.50
1632.00,84.64
1631.00,84.78
1630.00,84.93
1629.00,85.11
1628.00,85.29
1627.00,85.48
1626.00,85.67
1625.00,85.88
1624.00,86.12
1623.00,86.36
1622.00,86.60
1621.00,86.82
1620.00,87.02
1619.00,87.25
1618.00,87.52
1617.00,87.82
1616.00,88.08
1615.00,88.29
1614.00,88.48
1613.00,88.68
1612.00,88.90
1611.00,89.11
1610.00,89.32
1609.00,89.53
1608.00,89.73
1607.00,89.92
1606.00,90.11
1605.00,90.28
1604.00,90.46
1603.00,90.63
1602.00,90.79
1601.00,90.94
1600.00,91.08
1599.00,91.22
1598.00,91.35
1597.00,91.48
1596.00,91.61
1595.00,91.73
1594.00,91.84
1593.00,91.94
1592.00,92.04
1591.00,92.13
1590.00,92.23
1589.00,92.32
1588.00,92.41
1587.00,92.49
1586.00,92.56
1585.00,92.63
1584.00,92.70
1583.00,92.77
1582.00,92.84
1581.00,92.90
1580.00,92.94
1579.00,92.99
1578.00,93.07
1577.00,93.15
1576.00,93.22
1575.00,93.24
1574.00,93.25
1573.00,93.26
1572.00,93.28
1571.00,93.31
1570.00,93.36
1569.00,93.39
1568.00,93.42
1567.00,93.46
1566.00,93.51
1565.00,93.54
1564.00,93.55
1563.00,93.54
1562.00,93.52
1561.00,93.49
1560.00,93.50
1559.00,93.52
1558.00,93.49
1557.00,93.50
1556.00,93.55
1555.00,93.61
1554.00,93.65
1553.00,93.66
1552.00,93.67
1551.00,93.68
1550.00,93.69
1549.00,93.69
1548.00,93.67
1547.00,93.65
1546.00,93.64
1545.00,93.63
1544.00,93.61
1543.00,93.59
1542.00,93.59
1541.00,93.61
1540.00,93.63
1539.00,93.61
1538.00,93.59
1537.00,93.57
1536.00,93.55
1535.00,93.53
1534.00,93.52
1533.00,93.50
1532.00,93.48
1531.00,93.47
1530.00,93.46
1529.00,93.44
1528.00,93.42
1527.00,93.38
1526.00,93.34
1525.00,93.30
1524.00,93.26
1523.00,93.24
1522.00,93.23
1521.00,93.17
1520.00,93.10
1519.00,93.06
1518.00,93.03
1517.00,93.00
1516.00,92.94
1515.00,92.88
1514.00,92.84
1513.00,92.79
1512.00,92.74
1511.00,92.68
1510.00,92.62
1509.00,92.57
1508.00,92.52
1507.00,92.42
1506.00,92.27
1505.00,92.15
1504.00,92.09
1503.00,92.04
1502.00,91.97
1501.00,91.87
1500.00,91.75
1499.00,91.63
1498.00,91.52
1497.00,91.37
1496.00,91.19
1495.00,91.01
1494.00,90.85
1493.00,90.67
1492.00,90.48
1491.00,90.30
1490.00,90.11
1489.00,89.89
1488.00,89.66
1487.00,89.44
1486.00,89.22
1485.00,89.00
1484.00,88.76
1483.00,88.52
1482.00,88.26
1481.00,87.96
1480.00,87.65
1479.00,87.34
1478.00,87.01
1477.00,86.66
1476.00,86.29
1475.00,85.92
1474.00,85.53
1473.00,85.08
1472.00,84.59
1471.00,84.17
1470.00,83.81
1469.00,83.46
1468.00,83.09
1467.00,82.70
1466.00,82.27
1465.00,81.79
1464.00,81.34
1463.00,80.95
1462.00,80.63
1461.00,80.31
1460.00,80.00
1459.00,79.70
1458.00,79.37
1457.00,78.99
1456.00,78.68
1455.00,78.50
1454.00,78.40
1453.00,78.30
1452.00,78.21
1451.00,78.13
1450.00,78.04
1449.00,77.95
1448.00,77.87
1447.00,77.79
1446.00,77.72
1445.00,77.63
1444.00,77.53
1443.00,77.43
1442.00,77.31
1441.00,77.18
1440.00,77.05
1439.00,76.91
1438.00,76.75
1437.00,76.56
1436.00,76.37
1435.00,76.24
1434.00,76.14
1433.00,76.03
1432.00,75.91
1431.00,75.78
1430.00,75.65
1429.00,75.51
1428.00,75.38
1427.00,75.28
1426.00,75.19
1425.00,75.09
1424.00,74.98
1423.00,74.89
1422.00,74.81
1421.00,74.72
1420.00,74.64
1419.00,74.57
1418.00,74.52
1417.00,74.48
1416.00,74.47
1415.00,74.48
1414.00,74.49
1413.00,74.49
1412.00,74.51
1411.00,74.55
1410.00,74.59
1409.00,74.64
1408.00,74.69
1407.00,74.77
1406.00,74.87
1405.00,74.97
1404.00,75.08
1403.00,75.22
1402.00,75.35
1401.00,75.50
1400.00,75.65
1399.00,75.82
1398.00,75.98
1397.00,76.12
1396.00,76.26
1395.00,76.40
1394.00,76.54
1393.00,76.67
1392.00,76.79
1391.00,76.89
1390.00,76.97
1389.00,77.03
1388.00,77.07
1387.00,77.09
1386.00,77.08
1385.00,77.06
1384.00,77.02
1383.00,76.97
1382.00,76.90
1381.00,76.81
1380.00,76.70
1379.00,76.58
1378.00,76.45
1377.00,76.32
1376.00,76.19
1375.00,76.06
1374.00,75.93
1373.00,75.79
1372.00,75.67
1371.00,75.55
1370.00,75.45
1369.00,75.33
1368.00,75.22
1367.00,75.12
1366.00,75.02
1365.00,74.93
1364.00,74.84
1363.00,74.75
1362.00,74.67
1361.00,74.60
1360.00,74.54
1359.00,74.49
1358.00,74.44
1357.00,74.38
1356.00,74.31
1355.00,74.25
1354.00,74.19
1353.00,74.12
1352.00,74.05
1351.00,73.97
1350.00,73.89
1349.00,73.81
1348.00,73.74
1347.00,73.68
1346.00,73.63
1345.00,73.60
1344.00,73.59
1343.00,73.60
1342.00,73.64
1341.00,73.71
1340.00,73.80
1339.00,73.91
1338.00,74.04
1337.00,74.18
1336.00,74.33
1335.00,74.51
1334.00,74.68
1333.00,74.86
1332.00,75.03
1331.00,75.21
1330.00,75.38
1329.00,75.54
1328.00,75.69
1327.00,75.84
1326.00,75.98
1325.00,76.10
1324.00,76.22
1323.00,76.33
1322.00,76.44
1321.00,76.54
1320.00,76.63
1319.00,76.73
1318.00,76.82
1317.00,76.91
1316.00,77.01
1315.00,77.12
1314.00,77.23
1313.00,77.34
1312.00,77.46
1311.00,77.60
1310.00,77.74
1309.00,77.88
1308.00,78.03
1307.00,78.18
1306.00,78.32
1305.00,78.46
1304.00,78.60
1303.00,78.73
1302.00,78.86
1301.00,78.97
1300.00,79.07
1299.00,79.17
1298.00,79.25
1297.00,79.31
1296.00,79.36
1295.00,79.40
1294.00,79.43
1293.00,79.44
1292.00,79.45
1291.00,79.45
1290.00,79.45
1289.00,79.43
1288.00,79.40
1287.00,79.37
1286.00,79.34
1285.00,79.30
1284.00,79.26
1283.00,79.21
1282.00,79.17
1281.00,79.12
1280.00,79.06
1279.00,79.00
1278.00,78.93
1277.00,78.85
1276.00,78.75
1275.00,78.63
1274.00,78.50
1273.00,78.35
1272.00,78.19
1271.00,78.01
1270.00,77.83
1269.00,77.63
1268.00,77.43
1267.00,77.23
1266.00,77.04
1265.00,76.85
1264.00,76.68
1263.00,76.53
1262.00,76.40
1261.00,76.29
1260.00,76.20
1259.00,76.13
1258.00,76.07
1257.00,76.03
1256.00,76.00
1255.00,75.99
1254.00,75.99
1253.00,75.99
1252.00,75.99
1251.00,76.00
1250.00,76.02
1249.00,76.03
1248.00,76.05
1247.00,76.09
1246.00,76.12
1245.00,76.17
1244.00,76.21
1243.00,76.26
1242.00,76.31
1241.00,76.37
1240.00,76.43
1239.00,76.49
1238.00,76.56
1237.00,76.63
1236.00,76.71
1235.00,76.79
1234.00,76.88
1233.00,76.97
1232.00,77.07
1231.00,77.19
1230.00,77.33
1229.00,77.47
1228.00,77.64
1227.00,77.82
1226.00,78.02
1225.00,78.23
1224.00,78.46
1223.00,78.70
1222.00,78.95
1221.00,79.20
1220.00,79.47
1219.00,79.73
1218.00,80.00
1217.00,80.26
1216.00,80.49
1215.00,80.71
1214.00,80.90
1213.00,81.07
1212.00,81.22
1211.00,81.33
1210.00,81.40
1209.00,81.44
1208.00,81.46
1207.00,81.44
1206.00,81.40
1205.00,81.32
1204.00,81.23
1203.00,81.12
1202.00,81.02
1201.00,80.90
1200.00,80.80
1199.00,80.70
1198.00,80.60
1197.00,80.51
1196.00,80.43
1195.00,80.37
1194.00,80.31
1193.00,80.26
1192.00,80.22
1191.00,80.19
1190.00,80.17
1189.00,80.15
1188.00,80.14
1187.00,80.15
1186.00,80.16
1185.00,80.19
1184.00,80.21
1183.00,80.25
1182.00,80.30
1181.00,80.35
1180.00,80.40
1179.00,80.46
1178.00,80.50
1177.00,80.53
1176.00,80.52
1175.00,80.49
1174.00,80.41
1173.00,80.28
1172.00,80.09
1171.00,79.84
1170.00,79.52
1169.00,79.12
1168.00,78.66
1167.00,78.13
1166.00,77.55
1165.00,76.90
1164.00,76.19
1163.00,75.46
1162.00,74.70
1161.00,73.93
1160.00,73.16
1159.00,72.41
1158.00,71.69
1157.00,70.99
1156.00,70.34
1155.00,69.73
1154.00,69.18
1153.00,68.69
1152.00,68.28
1151.00,67.94
1150.00,67.68
1149.00,67.50
1148.00,67.39
1147.00,67.36
1146.00,67.40
1145.00,67.49
1144.00,67.62
1143.00,67.80
1142.00,68.00
1141.00,68.19
1140.00,68.35
1139.00,68.49
1138.00,68.59
1137.00,68.64
1136.00,68.66
1135.00,68.64
1134.00,68.58
1133.00,68.50
1132.00,68.39
1131.00,68.27
1130.00,68.15
1129.00,68.00
1128.00,67.83
1127.00,67.65
1126.00,67.44
1125.00,67.21
1124.00,66.95
1123.00,66.67
1122.00,66.35
1121.00,65.98
1120.00,65.56
1119.00,65.09
1118.00,64.58
1117.00,64.00
1116.00,63.36
1115.00,62.67
1114.00,61.93
1113.00,61.14
1112.00,60.31
1111.00,59.46
1110.00,58.60
1109.00,57.76
1108.00,56.95
1107.00,56.20
1106.00,55.53
1105.00,54.95
1104.00,54.47
1103.00,54.10
1102.00,53.86
1101.00,53.72
1100.00,53.67
1099.00,53.72
1098.00,53.82
1097.00,53.93
1096.00,54.00
1095.00,54.00
1094.00,53.90
1093.00,53.66
1092.00,53.27
1091.00,52.73
1090.00,52.04
1089.00,51.23
1088.00,50.30
1087.00,49.32
1086.00,48.30
1085.00,47.25
1084.00,46.21
1083.00,45.21
1082.00,44.27
1081.00,43.41
1080.00,42.64
1079.00,41.97
1078.00,41.42
1077.00,40.95
1076.00,40.56
1075.00,40.25
1074.00,40.00
1073.00,39.76
1072.00,39.51
1071.00,39.24
1070.00,38.94
1069.00,38.57
1068.00,38.14
1067.00,37.67
1066.00,37.18
1065.00,36.66
1064.00,36.11
1063.00,35.56
1062.00,35.01
1061.00,34.45
1060.00,33.88
1059.00,33.35
1058.00,32.86
1057.00,32.40
1056.00,31.96
1055.00,31.58
1054.00,31.25
1053.00,30.98
1052.00,30.78
1051.00,30.69
1050.00,30.70
1049.00,30.75
1048.00,30.82
1047.00,30.93
1046.00,31.04
1045.00,31.11
1044.00,31.13
1043.00,31.10
1042.00,31.03
1041.00,30.88
1040.00,30.64
1039.00,30.35
1038.00,30.00
1037.00,29.60
1036.00,29.15
1035.00,28.69
1034.00,28.24
1033.00,27.77
1032.00,27.31
1031.00,26.89
1030.00,26.54
1029.00,26.25
1028.00,26.03
1027.00,25.91
1026.00,25.89
1025.00,25.95
1024.00,26.08
1023.00,26.30
1022.00,26.58
1021.00,26.87
1020.00,27.16
1019.00,27.44
1018.00,27.72
1017.00,27.97
1016.00,28.18
1015.00,28.38
1014.00,28.60
1013.00,28.83
1012.00,29.11
1011.00,29.47
1010.00,29.96
1009.00,30.56
1008.00,31.30
1007.00,32.19
1006.00,33.24
1005.00,34.41
1004.00,35.67
1003.00,37.02
1002.00,38.39
1001.00,39.71
1000.00,40.93
999.00,42.02
998.00,42.94
997.00,43.66
996.00,44.18
995.00,44.55
994.00,44.79
993.00,44.93
992.00,45.04
991.00,45.15
990.00,45.31
989.00,45.50
988.00,45.74
987.00,46.03
986.00,46.34
985.00,46.65
984.00,46.94
983.00,47.21
982.00,47.50
981.00,47.80
980.00,48.17
979.00,48.65
978.00,49.28
977.00,50.07
976.00,51.01
975.00,52.08
974.00,53.21
973.00,54.31
972.00,55.28
971.00,56.09
970.00,56.68
969.00,57.07
968.00,57.31
967.00,57.48
966.00,57.70
965.00,58.04
964.00,58.59
963.00,59.41
962.00,60.49
961.00,61.79
960.00,63.26
959.00,64.81
958.00,66.37
957.00,67.83
956.00,69.16
955.00,70.32
954.00,71.32
953.00,72.16
952.00,72.84
951.00,73.41
950.00,73.87
949.00,74.23
948.00,74.50
947.00,74.72
946.00,74.87
945.00,74.97
944.00,75.03
943.00,75.05
942.00,75.05
941.00,75.01
940.00,74.95
939.00,74.87
938.00,74.77
937.00,74.65
936.00,74.51
935.00,74.36
934.00,74.19
933.00,73.97
932.00,73.71
931.00,73.41
930.00,73.08
929.00,72.71
928.00,72.30
927.00,71.85
926.00,71.38
925.00,70.89
924.00,70.39
923.00,69.93
922.00,69.52
921.00,69.16
920.00,68.88
919.00,68.70
918.00,68.62
917.00,68.64
916.00,68.75
915.00,68.95
914.00,69.20
913.00,69.48
912.00,69.75
911.00,70.01
910.00,70.23
909.00,70.39
908.00,70.47
907.00,70.49
906.00,70.45
905.00,70.36
904.00,70.22
903.00,70.05
902.00,69.87
901.00,69.70
900.00,69.54
899.00,69.41
898.00,69.32
897.00,69.25
896.00,69.23
895.00,69.25
894.00,69.33
893.00,69.47
892.00,69.64
891.00,69.85
890.00,70.09
889.00,70.33
888.00,70.57
887.00,70.80
886.00,70.99
885.00,71.12
884.00,71.19
883.00,71.18
882.00,71.10
881.00,70.93
880.00,70.67
879.00,70.34
878.00,69.93
877.00,69.44
876.00,68.89
875.00,68.30
874.00,67.71
873.00,67.12
872.00,66.55
871.00,66.02
870.00,65.55
869.00,65.13
868.00,64.78
867.00,64.53
866.00,64.38
865.00,64.34
864.00,64.38
863.00,64.51
862.00,64.73
861.00,65.02
860.00,65.35
859.00,65.72
858.00,66.11
857.00,66.49
856.00,66.85
855.00,67.19
854.00,67.49
853.00,67.74
852.00,67.93
851.00,68.08
850.00,68.18
849.00,68.23
848.00,68.22
847.00,68.17
846.00,68.10
845.00,68.00
844.00,67.87
843.00,67.74
842.00,67.60
841.00,67.45
840.00,67.27
839.00,67.10
838.00,66.92
837.00,66.72
836.00,66.49
835.00,66.24
834.00,65.95
833.00,65.59
832.00,65.18
831.00,64.71
830.00,64.18
829.00,63.58
828.00,62.91
827.00,62.17
826.00,61.38
825.00,60.53
824.00,59.63
823.00,58.76
822.00,57.96
821.00,57.26
820.00,56.69
819.00,56.27
818.00,56.03
817.00,55.95
816.00,56.03
815.00,56.28
814.00,56.69
813.00,57.20
812.00,57.78
811.00,58.40
810.00,59.03
809.00,59.63
808.00,60.16
807.00,60.62
806.00,61.02
805.00,61.35
804.00,61.59
803.00,61.78
802.00,61.90
801.00,61.96
800.00,61.96
799.00,61.92
798.00,61.83
797.00,61.69
796.00,61.48
795.00,61.20
794.00,60.86
793.00,60.44
792.00,59.92
791.00,59.33
790.00,58.65
789.00,57.88
788.00,57.02
787.00,56.10
786.00,55.16
785.00,54.21
784.00,53.29
783.00,52.43
782.00,51.67
781.00,51.00
780.00,50.43
779.00,49.99
778.00,49.69
777.00,49.50
776.00,49.41
775.00,49.43
774.00,49.52
773.00,49.68
772.00,49.90
771.00,50.19
770.00,50.52
769.00,50.87
768.00,51.22
767.00,51.58
766.00,51.93
765.00,52.25
764.00,52.54
763.00,52.80
762.00,53.04
761.00,53.22
760.00,53.36
759.00,53.47
758.00,53.57
757.00,53.64
756.00,53.67
755.00,53.69
754.00,53.71
753.00,53.71
752.00,53.68
751.00,53.63
750.00,53.58
749.00,53.51
748.00,53.42
747.00,53.35
746.00,53.27
745.00,53.18
744.00,53.06
743.00,52.95
742.00,52.85
741.00,52.74
740.00,52.62
739.00,52.50
738.00,52.39
737.00,52.27
736.00,52.14
735.00,52.00
734.00,51.87
733.00,51.72
732.00,51.56
731.00,51.42
730.00,51.29
729.00,51.15
728.00,50.98
727.00,50.81
726.00,50.65
725.00,50.49
724.00,50.32
723.00,50.15
722.00,49.99
721.00,49.78
720.00,49.53
719.00,49.28
718.00,49.04
717.00,48.81
716.00,48.56
715.00,48.30
714.00,48.03
713.00,47.73
712.00,47.41
711.00,47.10
710.00,46.81
709.00,46.52
708.00,46.22
707.00,45.95
706.00,45.71
705.00,45.49
704.00,45.29
703.00,45.13
702.00,45.02
701.00,44.92
700.00,44.83
699.00,44.77
698.00,44.72
697.00,44.66
696.00,44.58
695.00,44.53
694.00,44.50
693.00,44.47
692.00,44.43
691.00,44.39
690.00,44.36
689.00,44.31
688.00,44.22
687.00,44.14
686.00,44.10
685.00,44.06
684.00,43.98
683.00,43.90
682.00,43.83
681.00,43.74
680.00,43.62
679.00,43.52
678.00,43.44
677.00,43.35
676.00,43.24
675.00,43.14
674.00,43.05
673.00,42.94
672.00,42.82
671.00,42.74
670.00,42.72
669.00,42.66
668.00,42.48
667.00,42.31
666.00,42.21
665.00,42.13
664.00,42.01
663.00,41.90
662.00,41.81
661.00,41.71
660.00,41.57
659.00,41.42
658.00,41.30
657.00,41.17
656.00,41.01
655.00,40.85
654.00,40.71
653.00,40.53
652.00,40.28
651.00,40.05
650.00,39.84
