Created as New Dataset,Sample 300 By iruser Date Friday, March 13 2026
cm-1,%T
4200.00,100.28
4199.00,100.28
4198.00,100.27
4197.00,100.26
4196.00,100.26
4195.00,100.26
4194.00,100.26
4193.00,100.27
4192.00,100.27
4191.00,100.27
4190.00,100.26
4189.00,100.26
4188.00,100.26
4187.00,100.26
4186.00,100.26
4185.00,100.26
4184.00,100.25
4183.00,100.25
4182.00,100.25
4181.00,100.25
4180.00,100.25
4179.00,100.25
4178.00,100.25
4177.00,100.26
4176.00,100.26
4175.00,100.26
4174.00,100.25
4173.00,100.25
4172.00,100.25
4171.00,100.25
4170.00,100.25
4169.00,100.25
4168.00,100.26
4167.00,100.25
4166.00,100.25
4165.00,100.25
4164.00,100.24
4163.00,100.24
4162.00,100.23
4161.00,100.23
4160.00,100.23
4159.00,100.22
4158.00,100.22
4157.00,100.22
4156.00,100.22
4155.00,100.22
4154.00,100.22
4153.00,100.22
4152.00,100.22
4151.00,100.22
4150.00,100.22
4149.00,100.22
4148.00,100.22
4147.00,100.21
4146.00,100.21
4145.00,100.20
4144.00,100.20
4143.00,100.20
4142.00,100.19
4141.00,100.19
4140.00,100.18
4139.00,100.18
4138.00,100.18
4137.00,100.18
4136.00,100.18
4135.00,100.18
4134.00,100.18
4133.00,100.18
4132.00,100.19
4131.00,100.19
4130.00,100.20
4129.00,100.19
4128.00,100.19
4127.00,100.18
4126.00,100.17
4125.00,100.17
4124.00,100.17
4123.00,100.18
4122.00,100.18
4121.00,100.18
4120.00,100.18
4119.00,100.18
4118.00,100.17
4117.00,100.16
4116.00,100.15
4115.00,100.15
4114.00,100.15
4113.00,100.15
4112.00,100.15
4111.00,100.15
4110.00,100.14
4109.00,100.14
4108.00,100.14
4107.00,100.14
4106.00,100.14
4105.00,100.14
4104.00,100.14
4103.00,100.14
4102.00,100.13
4101.00,100.13
4100.00,100.12
4099.00,100.12
4098.00,100.11
4097.00,100.11
4096.00,100.11
4095.00,100.12
4094.00,100.12
4093.00,100.12
4092.00,100.12
4091.00,100.11
4090.00,100.11
4089.00,100.11
4088.00,100.10
4087.00,100.10
4086.00,100.10
4085.00,100.10
4084.00,100.10
4083.00,100.10
4082.00,100.10
4081.00,100.10
4080.00,100.09
4079.00,100.09
4078.00,100.09
4077.00,100.09
4076.00,100.08
4075.00,100.08
4074.00,100.08
4073.00,100.08
4072.00,100.07
4071.00,100.07
4070.00,100.06
4069.00,100.06
4068.00,100.05
4067.00,100.05
4066.00,100.05
4065.00,100.04
4064.00,100.04
4063.00,100.03
4062.00,100.02
4061.00,100.02
4060.00,100.03
4059.00,100.03
4058.00,100.03
4057.00,100.02
4056.00,100.02
4055.00,100.02
4054.00,100.02
4053.00,100.02
4052.00,100.02
4051.00,100.01
4050.00,100.01
4049.00,100.00
4048.00,100.00
4047.00,100.00
4046.00,100.00
4045.00,100.00
4044.00,100.00
4043.00,100.01
4042.00,100.00
4041.00,100.00
4040.00,99.99
4039.00,99.99
4038.00,99.99
4037.00,99.99
4036.00,99.98
4035.00,99.98
4034.00,99.97
4033.00,99.97
4032.00,99.97
4031.00,99.97
4030.00,99.96
4029.00,99.96
4028.00,99.95
4027.00,99.95
4026.00,99.95
4025.00,99.95
4024.00,99.95
4023.00,99.95
4022.00,99.95
4021.00,99.95
4020.00,99.95
4019.00,99.95
4018.00,99.94
4017.00,99.94
4016.00,99.94
4015.00,99.94
4014.00,99.94
4013.00,99.94
4012.00,99.95
4011.00,99.95
4010.00,99.95
4009.00,99.94
4008.00,99.94
4007.00,99.94
4006.00,99.94
4005.00,99.94
4004.00,99.94
4003.00,99.94
4002.00,99.94
4001.00,99.93
4000.00,99.93
3999.00,99.93
3998.00,99.94
3997.00,99.94
3996.00,99.94
3995.00,99.94
3994.00,99.94
3993.00,99.94
3992.00,99.94
3991.00,99.93
3990.00,99.93
3989.00,99.93
3988.00,99.94
3987.00,99.94
3986.00,99.95
3985.00,99.95
3984.00,99.95
3983.00,99.95
3982.00,99.95
3981.00,99.95
3980.00,99.94
3979.00,99.94
3978.00,99.93
3977.00,99.94
3976.00,99.94
3975.00,99.94
3974.00,99.95
3973.00,99.94
3972.00,99.94
3971.00,99.94
3970.00,99.94
3969.00,99.94
3968.00,99.94
3967.00,99.94
3966.00,99.94
3965.00,99.94
3964.00,99.94
3963.00,99.95
3962.00,99.95
3961.00,99.96
3960.00,99.96
3959.00,99.96
3958.00,99.96
3957.00,99.96
3956.00,99.96
3955.00,99.95
3954.00,99.95
3953.00,99.95
3952.00,99.94
3951.00,99.94
3950.00,99.93
3949.00,99.94
3948.00,99.94
3947.00,99.94
3946.00,99.95
3945.00,99.95
3944.00,99.96
3943.00,99.96
3942.00,99.96
3941.00,99.96
3940.00,99.96
3939.00,99.96
3938.00,99.96
3937.00,99.95
3936.00,99.95
3935.00,99.95
3934.00,99.95
3933.00,99.96
3932.00,99.96
3931.00,99.97
3930.00,99.97
3929.00,99.97
3928.00,99.97
3927.00,99.97
3926.00,99.98
3925.00,99.98
3924.00,99.98
3923.00,99.98
3922.00,99.98
3921.00,99.98
3920.00,99.97
3919.00,99.97
3918.00,99.98
3917.00,99.99
3916.00,100.00
3915.00,100.00
3914.00,100.01
3913.00,100.01
3912.00,100.01
3911.00,100.00
3910.00,100.00
3909.00,99.99
3908.00,99.98
3907.00,99.98
3906.00,99.98
3905.00,99.98
3904.00,99.98
3903.00,99.98
3902.00,99.98
3901.00,99.99
3900.00,100.00
3899.00,100.01
3898.00,100.01
3897.00,100.01
3896.00,100.00
3895.00,100.00
3894.00,100.00
3893.00,100.00
3892.00,100.01
3891.00,100.01
3890.00,100.01
3889.00,100.00
3888.00,100.01
3887.00,100.02
3886.00,100.02
3885.00,100.01
3884.00,99.99
3883.00,99.99
3882.00,100.01
3881.00,100.02
3880.00,100.03
3879.00,100.02
3878.00,100.02
3877.00,100.02
3876.00,100.03
3875.00,100.03
3874.00,100.02
3873.00,100.01
3872.00,100.01
3871.00,100.03
3870.00,100.03
3869.00,100.01
3868.00,100.00
3867.00,99.99
3866.00,100.00
3865.00,100.01
3864.00,100.01
3863.00,100.01
3862.00,100.02
3861.00,100.04
3860.00,100.04
3859.00,100.04
3858.00,100.04
3857.00,100.03
3856.00,100.04
3855.00,100.05
3854.00,100.04
3853.00,100.02
3852.00,100.01
3851.00,100.01
3850.00,100.02
3849.00,100.02
3848.00,100.02
3847.00,100.02
3846.00,100.03
3845.00,100.03
3844.00,100.03
3843.00,100.02
3842.00,100.01
3841.00,100.00
3840.00,100.01
3839.00,100.01
3838.00,100.01
3837.00,100.01
3836.00,100.02
3835.00,100.02
3834.00,100.03
3833.00,100.03
3832.00,100.04
3831.00,100.03
3830.00,100.03
3829.00,100.03
3828.00,100.03
3827.00,100.03
3826.00,100.03
3825.00,100.01
3824.00,100.00
3823.00,100.01
3822.00,100.01
3821.00,100.00
3820.00,99.98
3819.00,99.98
3818.00,100.00
3817.00,100.02
3816.00,100.03
3815.00,100.02
3814.00,100.02
3813.00,100.02
3812.00,100.02
3811.00,100.01
3810.00,100.00
3809.00,100.01
3808.00,100.02
3807.00,100.02
3806.00,100.01
3805.00,99.99
3804.00,99.99
3803.00,100.00
3802.00,100.00
3801.00,99.99
3800.00,99.97
3799.00,99.97
3798.00,99.98
3797.00,99.99
3796.00,99.98
3795.00,99.98
3794.00,99.98
3793.00,99.98
3792.00,99.99
3791.00,99.99
3790.00,99.98
3789.00,99.98
3788.00,99.98
3787.00,99.98
3786.00,99.98
3785.00,99.98
3784.00,99.98
3783.00,99.97
3782.00,99.96
3781.00,99.97
3780.00,99.97
3779.00,99.97
3778.00,99.96
3777.00,99.96
3776.00,99.96
3775.00,99.96
3774.00,99.95
3773.00,99.94
3772.00,99.94
3771.00,99.94
3770.00,99.94
3769.00,99.93
3768.00,99.93
3767.00,99.93
3766.00,99.94
3765.00,99.93
3764.00,99.92
3763.00,99.92
3762.00,99.92
3761.00,99.92
3760.00,99.92
3759.00,99.91
3758.00,99.91
3757.00,99.91
3756.00,99.91
3755.00,99.90
3754.00,99.90
3753.00,99.89
3752.00,99.89
3751.00,99.89
3750.00,99.89
3749.00,99.88
3748.00,99.86
3747.00,99.85
3746.00,99.87
3745.00,99.87
3744.00,99.86
3743.00,99.84
3742.00,99.84
3741.00,99.84
3740.00,99.83
3739.00,99.80
3738.00,99.79
3737.00,99.78
3736.00,99.78
3735.00,99.77
3734.00,99.77
3733.00,99.78
3732.00,99.78
3731.00,99.78
3730.00,99.77
3729.00,99.77
3728.00,99.76
3727.00,99.76
3726.00,99.75
3725.00,99.74
3724.00,99.74
3723.00,99.74
3722.00,99.73
3721.00,99.73
3720.00,99.72
3719.00,99.72
3718.00,99.72
3717.00,99.71
3716.00,99.70
3715.00,99.68
3714.00,99.67
3713.00,99.66
3712.00,99.64
3711.00,99.63
3710.00,99.61
3709.00,99.61
3708.00,99.60
3707.00,99.60
3706.00,99.58
3705.00,99.57
3704.00,99.56
3703.00,99.54
3702.00,99.53
3701.00,99.52
3700.00,99.50
3699.00,99.48
3698.00,99.47
3697.00,99.45
3696.00,99.43
3695.00,99.41
3694.00,99.39
3693.00,99.36
3692.00,99.34
3691.00,99.31
3690.00,99.28
3689.00,99.25
3688.00,99.21
3687.00,99.18
3686.00,99.15
3685.00,99.13
3684.00,99.11
3683.00,99.08
3682.00,99.04
3681.00,99.00
3680.00,98.95
3679.00,98.90
3678.00,98.86
3677.00,98.83
3676.00,98.79
3675.00,98.73
3674.00,98.68
3673.00,98.63
3672.00,98.60
3671.00,98.55
3670.00,98.47
3669.00,98.40
3668.00,98.34
3667.00,98.29
3666.00,98.24
3665.00,98.18
3664.00,98.12
3663.00,98.05
3662.00,97.99
3661.00,97.92
3660.00,97.84
3659.00,97.77
3658.00,97.69
3657.00,97.61
3656.00,97.51
3655.00,97.42
3654.00,97.33
3653.00,97.24
3652.00,97.14
3651.00,97.02
3650.00,96.90
3649.00,96.79
3648.00,96.69
3647.00,96.60
3646.00,96.52
3645.00,96.44
3644.00,96.35
3643.00,96.26
3642.00,96.16
3641.00,96.05
3640.00,95.95
3639.00,95.84
3638.00,95.73
3637.00,95.63
3636.00,95.52
3635.00,95.42
3634.00,95.31
3633.00,95.20
3632.00,95.08
3631.00,94.96
3630.00,94.83
3629.00,94.68
3628.00,94.54
3627.00,94.42
3626.00,94.32
3625.00,94.22
3624.00,94.10
3623.00,93.98
3622.00,93.85
3621.00,93.72
3620.00,93.58
3619.00,93.44
3618.00,93.30
3617.00,93.17
3616.00,93.04
3615.00,92.92
3614.00,92.80
3613.00,92.67
3612.00,92.53
3611.00,92.39
3610.00,92.25
3609.00,92.09
3608.00,91.94
3607.00,91.79
3606.00,91.65
3605.00,91.52
3604.00,91.38
3603.00,91.24
3602.00,91.09
3601.00,90.94
3600.00,90.79
3599.00,90.64
3598.00,90.49
3597.00,90.34
3596.00,90.18
3595.00,90.02
3594.00,89.85
3593.00,89.70
3592.00,89.54
3591.00,89.38
3590.00,89.21
3589.00,89.03
3588.00,88.84
3587.00,88.66
3586.00,88.50
3585.00,88.34
3584.00,88.18
3583.00,88.03
3582.00,87.87
3581.00,87.70
3580.00,87.53
3579.00,87.37
3578.00,87.19
3577.00,87.02
3576.00,86.84
3575.00,86.67
3574.00,86.50
3573.00,86.32
3572.00,86.14
3571.00,85.96
3570.00,85.78
3569.00,85.59
3568.00,85.39
3567.00,85.19
3566.00,84.99
3565.00,84.81
3564.00,84.64
3563.00,84.46
3562.00,84.29
3561.00,84.11
3560.00,83.93
3559.00,83.75
3558.00,83.56
3557.00,83.38
3556.00,83.20
3555.00,83.01
3554.00,82.82
3553.00,82.63
3552.00,82.43
3551.00,82.24
3550.00,82.06
3549.00,81.87
3548.00,81.68
3547.00,81.49
3546.00,81.29
3545.00,81.10
3544.00,80.91
3543.00,80.73
3542.00,80.55
3541.00,80.36
3540.00,80.18
3539.00,79.98
3538.00,79.79
3537.00,79.60
3536.00,79.41
3535.00,79.22
3534.00,79.03
3533.00,78.85
3532.00,78.66
3531.00,78.47
3530.00,78.29
3529.00,78.09
3528.00,77.90
3527.00,77.71
3526.00,77.52
3525.00,77.33
3524.00,77.14
3523.00,76.95
3522.00,76.77
3521.00,76.58
3520.00,76.40
3519.00,76.22
3518.00,76.03
3517.00,75.85
3516.00,75.66
3515.00,75.47
3514.00,75.29
3513.00,75.10
3512.00,74.91
3511.00,74.73
3510.00,74.54
3509.00,74.36
3508.00,74.17
3507.00,73.99
3506.00,73.80
3505.00,73.61
3504.00,73.41
3503.00,73.23
3502.00,73.05
3501.00,72.87
3500.00,72.69
3499.00,72.52
3498.00,72.34
3497.00,72.16
3496.00,71.98
3495.00,71.80
3494.00,71.63
3493.00,71.45
3492.00,71.27
3491.00,71.09
3490.00,70.91
3489.00,70.73
3488.00,70.55
3487.00,70.37
3486.00,70.19
3485.00,70.01
3484.00,69.84
3483.00,69.66
3482.00,69.49
3481.00,69.31
3480.00,69.14
3479.00,68.98
3478.00,68.81
3477.00,68.65
3476.00,68.48
3475.00,68.31
3474.00,68.13
3473.00,67.96
3472.00,67.78
3471.00,67.60
3470.00,67.42
3469.00,67.25
3468.00,67.08
3467.00,66.92
3466.00,66.76
3465.00,66.60
3464.00,66.43
3463.00,66.26
3462.00,66.09
3461.00,65.92
3460.00,65.75
3459.00,65.59
3458.00,65.44
3457.00,65.28
3456.00,65.11
3455.00,64.95
3454.00,64.79
3453.00,64.64
3452.00,64.47
3451.00,64.31
3450.00,64.15
3449.00,63.98
3448.00,63.82
3447.00,63.66
3446.00,63.50
3445.00,63.34
3444.00,63.18
3443.00,63.03
3442.00,62.87
3441.00,62.72
3440.00,62.57
3439.00,62.41
3438.00,62.25
3437.00,62.10
3436.00,61.94
3435.00,61.79
3434.00,61.64
3433.00,61.49
3432.00,61.35
3431.00,61.20
3430.00,61.05
3429.00,60.90
3428.00,60.76
3427.00,60.62
3426.00,60.48
3425.00,60.33
3424.00,60.19
3423.00,60.05
3422.00,59.90
3421.00,59.75
3420.00,59.61
3419.00,59.47
3418.00,59.34
3417.00,59.20
3416.00,59.06
3415.00,58.92
3414.00,58.78
3413.00,58.65
3412.00,58.52
3411.00,58.39
3410.00,58.26
3409.00,58.13
3408.00,58.00
3407.00,57.87
3406.00,57.74
3405.00,57.61
3404.00,57.48
3403.00,57.34
3402.00,57.22
3401.00,57.09
3400.00,56.97
3399.00,56.86
3398.00,56.74
3397.00,56.62
3396.00,56.50
3395.00,56.38
3394.00,56.27
3393.00,56.16
3392.00,56.05
3391.00,55.94
3390.00,55.84
3389.00,55.73
3388.00,55.62
3387.00,55.51
3386.00,55.41
3385.00,55.30
3384.00,55.20
3383.00,55.10
3382.00,55.00
3381.00,54.90
3380.00,54.79
3379.00,54.69
3378.00,54.59
3377.00,54.49
3376.00,54.39
3375.00,54.30
3374.00,54.21
3373.00,54.12
3372.00,54.03
3371.00,53.94
3370.00,53.85
3369.00,53.76
3368.00,53.68
3367.00,53.61
3366.00,53.54
3365.00,53.46
3364.00,53.38
3363.00,53.30
3362.00,53.22
3361.00,53.13
3360.00,53.06
3359.00,52.98
3358.00,52.91
3357.00,52.84
3356.00,52.77
3355.00,52.70
3354.00,52.63
3353.00,52.56
3352.00,52.50
3351.00,52.43
3350.00,52.37
3349.00,52.31
3348.00,52.26
3347.00,52.20
3346.00,52.14
3345.00,52.08
3344.00,52.02
3343.00,51.96
3342.00,51.91
3341.00,51.85
3340.00,51.80
3339.00,51.75
3338.00,51.70
3337.00,51.66
3336.00,51.61
3335.00,51.57
3334.00,51.52
3333.00,51.47
3332.00,51.43
3331.00,51.39
3330.00,51.35
3329.00,51.31
3328.00,51.26
3327.00,51.22
3326.00,51.17
3325.00,51.14
3324.00,51.10
3323.00,51.07
3322.00,51.04
3321.00,51.00
3320.00,50.96
3319.00,50.92
3318.00,50.88
3317.00,50.84
3316.00,50.80
3315.00,50.77
3314.00,50.74
3313.00,50.71
3312.00,50.68
3311.00,50.65
3310.00,50.61
3309.00,50.58
3308.00,50.55
3307.00,50.52
3306.00,50.50
3305.00,50.48
3304.00,50.46
3303.00,50.45
3302.00,50.43
3301.00,50.40
3300.00,50.38
3299.00,50.35
3298.00,50.32
3297.00,50.29
3296.00,50.27
3295.00,50.26
3294.00,50.25
3293.00,50.23
3292.00,50.22
3291.00,50.21
3290.00,50.19
3289.00,50.17
3288.00,50.16
3287.00,50.14
3286.00,50.12
3285.00,50.11
3284.00,50.10
3283.00,50.08
3282.00,50.07
3281.00,50.06
3280.00,50.05
3279.00,50.05
3278.00,50.04
3277.00,50.03
3276.00,50.03
3275.00,50.02
3274.00,50.02
3273.00,50.02
3272.00,50.02
3271.00,50.02
3270.00,50.02
3269.00,50.02
3268.00,50.02
3267.00,50.03
3266.00,50.03
3265.00,50.04
3264.00,50.05
3263.00,50.06
3262.00,50.07
3261.00,50.08
3260.00,50.09
3259.00,50.11
3258.00,50.12
3257.00,50.13
3256.00,50.15
3255.00,50.17
3254.00,50.19
3253.00,50.21
3252.00,50.24
3251.00,50.26
3250.00,50.28
3249.00,50.29
3248.00,50.32
3247.00,50.35
3246.00,50.39
3245.00,50.43
3244.00,50.47
3243.00,50.50
3242.00,50.54
3241.00,50.58
3240.00,50.62
3239.00,50.66
3238.00,50.69
3237.00,50.73
3236.00,50.78
3235.00,50.83
3234.00,50.88
3233.00,50.94
3232.00,51.00
3231.00,51.06
3230.00,51.11
3229.00,51.17
3228.00,51.22
3227.00,51.28
3226.00,51.34
3225.00,51.41
3224.00,51.47
3223.00,51.54
3222.00,51.61
3221.00,51.68
3220.00,51.75
3219.00,51.83
3218.00,51.91
3217.00,51.99
3216.00,52.07
3215.00,52.16
3214.00,52.25
3213.00,52.34
3212.00,52.43
3211.00,52.52
3210.00,52.61
3209.00,52.70
3208.00,52.79
3207.00,52.89
3206.00,52.99
3205.00,53.09
3204.00,53.19
3203.00,53.29
3202.00,53.39
3201.00,53.50
3200.00,53.61
3199.00,53.72
3198.00,53.83
3197.00,53.95
3196.00,54.06
3195.00,54.18
3194.00,54.29
3193.00,54.41
3192.00,54.53
3191.00,54.65
3190.00,54.77
3189.00,54.90
3188.00,55.03
3187.00,55.16
3186.00,55.29
3185.00,55.43
3184.00,55.56
3183.00,55.70
3182.00,55.84
3181.00,55.98
3180.00,56.11
3179.00,56.25
3178.00,56.39
3177.00,56.54
3176.00,56.68
3175.00,56.83
3174.00,56.97
3173.00,57.12
3172.00,57.28
3171.00,57.43
3170.00,57.59
3169.00,57.75
3168.00,57.90
3167.00,58.06
3166.00,58.22
3165.00,58.37
3164.00,58.53
3163.00,58.68
3162.00,58.84
3161.00,59.00
3160.00,59.17
3159.00,59.34
3158.00,59.51
3157.00,59.68
3156.00,59.85
3155.00,60.01
3154.00,60.18
3153.00,60.35
3152.00,60.53
3151.00,60.71
3150.00,60.89
3149.00,61.07
3148.00,61.25
3147.00,61.43
3146.00,61.61
3145.00,61.78
3144.00,61.95
3143.00,62.13
3142.00,62.30
3141.00,62.48
3140.00,62.66
3139.00,62.85
3138.00,63.04
3137.00,63.23
3136.00,63.42
3135.00,63.61
3134.00,63.80
3133.00,63.99
3132.00,64.17
3131.00,64.36
3130.00,64.55
3129.00,64.73
3128.00,64.92
3127.00,65.12
3126.00,65.31
3125.00,65.50
3124.00,65.69
3123.00,65.87
3122.00,66.06
3121.00,66.25
3120.00,66.44
3119.00,66.63
3118.00,66.82
3117.00,67.01
3116.00,67.21
3115.00,67.40
3114.00,67.60
3113.00,67.80
3112.00,67.99
3111.00,68.19
3110.00,68.39
3109.00,68.58
3108.00,68.78
3107.00,68.97
3106.00,69.16
3105.00,69.35
3104.00,69.55
3103.00,69.74
3102.00,69.93
3101.00,70.13
3100.00,70.32
3099.00,70.52
3098.00,70.71
3097.00,70.90
3096.00,71.10
3095.00,71.29
3094.00,71.48
3093.00,71.68
3092.00,71.86
3091.00,72.05
3090.00,72.25
3089.00,72.44
3088.00,72.64
3087.00,72.83
3086.00,73.01
3085.00,73.19
3084.00,73.38
3083.00,73.56
3082.00,73.75
3081.00,73.94
3080.00,74.12
3079.00,74.31
3078.00,74.50
3077.00,74.69
3076.00,74.88
3075.00,75.07
3074.00,75.25
3073.00,75.44
3072.00,75.63
3071.00,75.81
3070.00,75.99
3069.00,76.16
3068.00,76.34
3067.00,76.51
3066.00,76.69
3065.00,76.87
3064.00,77.05
3063.00,77.23
3062.00,77.40
3061.00,77.58
3060.00,77.76
3059.00,77.93
3058.00,78.11
3057.00,78.28
3056.00,78.45
3055.00,78.62
3054.00,78.79
3053.00,78.95
3052.00,79.12
3051.00,79.28
3050.00,79.45
3049.00,79.62
3048.00,79.78
3047.00,79.95
3046.00,80.11
3045.00,80.26
3044.00,80.42
3043.00,80.58
3042.00,80.74
3041.00,80.90
3040.00,81.05
3039.00,81.20
3038.00,81.35
3037.00,81.50
3036.00,81.65
3035.00,81.80
3034.00,81.95
3033.00,82.09
3032.00,82.24
3031.00,82.38
3030.00,82.53
3029.00,82.67
3028.00,82.80
3027.00,82.94
3026.00,83.08
3025.00,83.21
3024.00,83.34
3023.00,83.47
3022.00,83.59
3021.00,83.72
3020.00,83.84
3019.00,83.96
3018.00,84.08
3017.00,84.19
3016.00,84.30
3015.00,84.41
3014.00,84.51
3013.00,84.61
3012.00,84.71
3011.00,84.81
3010.00,84.90
3009.00,85.00
3008.00,85.09
3007.00,85.17
3006.00,85.25
3005.00,85.32
3004.00,85.39
3003.00,85.45
3002.00,85.51
3001.00,85.57
3000.00,85.62
2999.00,85.66
2998.00,85.70
2997.00,85.72
2996.00,85.75
2995.00,85.77
2994.00,85.78
2993.00,85.79
2992.00,85.79
2991.00,85.78
2990.00,85.77
2989.00,85.75
2988.00,85.73
2987.00,85.70
2986.00,85.68
2985.00,85.65
2984.00,85.62
2983.00,85.58
2982.00,85.53
2981.00,85.48
2980.00,85.44
2979.00,85.39
2978.00,85.35
2977.00,85.31
2976.00,85.26
2975.00,85.21
2974.00,85.15
2973.00,85.09
2972.00,85.04
2971.00,84.98
2970.00,84.92
2969.00,84.85
2968.00,84.78
2967.00,84.71
2966.00,84.62
2965.00,84.53
2964.00,84.43
2963.00,84.33
2962.00,84.21
2961.00,84.08
2960.00,83.95
2959.00,83.81
2958.00,83.66
2957.00,83.50
2956.00,83.34
2955.00,83.17
2954.00,83.00
2953.00,82.83
2952.00,82.66
2951.00,82.49
2950.00,82.31
2949.00,82.14
2948.00,81.97
2947.00,81.81
2946.00,81.66
2945.00,81.51
2944.00,81.37
2943.00,81.24
2942.00,81.11
2941.00,80.99
2940.00,80.89
2939.00,80.81
2938.00,80.73
2937.00,80.68
2936.00,80.64
2935.00,80.61
2934.00,80.59
2933.00,80.58
2932.00,80.59
2931.00,80.61
2930.00,80.63
2929.00,80.67
2928.00,80.72
2927.00,80.78
2926.00,80.84
2925.00,80.91
2924.00,80.99
2923.00,81.07
2922.00,81.15
2921.00,81.23
2920.00,81.31
2919.00,81.39
2918.00,81.47
2917.00,81.55
2916.00,81.62
2915.00,81.70
2914.00,81.77
2913.00,81.84
2912.00,81.90
2911.00,81.96
2910.00,82.01
2909.00,82.06
2908.00,82.10
2907.00,82.14
2906.00,82.17
2905.00,82.20
2904.00,82.22
2903.00,82.24
2902.00,82.26
2901.00,82.27
2900.00,82.28
2899.00,82.28
2898.00,82.28
2897.00,82.28
2896.00,82.28
2895.00,82.29
2894.00,82.30
2893.00,82.31
2892.00,82.32
2891.00,82.33
2890.00,82.34
2889.00,82.36
2888.00,82.39
2887.00,82.42
2886.00,82.47
2885.00,82.52
2884.00,82.58
2883.00,82.64
2882.00,82.72
2881.00,82.81
2880.00,82.90
2879.00,83.01
2878.00,83.12
2877.00,83.24
2876.00,83.35
2875.00,83.48
2874.00,83.60
2873.00,83.73
2872.00,83.86
2871.00,83.99
2870.00,84.12
2869.00,84.26
2868.00,84.39
2867.00,84.53
2866.00,84.66
2865.00,84.79
2864.00,84.92
2863.00,85.05
2862.00,85.17
2861.00,85.29
2860.00,85.41
2859.00,85.52
2858.00,85.64
2857.00,85.75
2856.00,85.87
2855.00,85.99
2854.00,86.10
2853.00,86.22
2852.00,86.33
2851.00,86.45
2850.00,86.56
2849.00,86.68
2848.00,86.80
2847.00,86.92
2846.00,87.03
2845.00,87.15
2844.00,87.26
2843.00,87.37
2842.00,87.48
2841.00,87.59
2840.00,87.69
2839.00,87.80
2838.00,87.91
2837.00,88.01
2836.00,88.11
2835.00,88.21
2834.00,88.30
2833.00,88.40
2832.00,88.49
2831.00,88.59
2830.00,88.68
2829.00,88.76
2828.00,88.85
2827.00,88.93
2826.00,89.01
2825.00,89.10
2824.00,89.18
2823.00,89.26
2822.00,89.34
2821.00,89.42
2820.00,89.50
2819.00,89.57
2818.00,89.65
2817.00,89.72
2816.00,89.79
2815.00,89.87
2814.00,89.93
2813.00,90.00
2812.00,90.07
2811.00,90.14
2810.00,90.20
2809.00,90.26
2808.00,90.33
2807.00,90.39
2806.00,90.45
2805.00,90.51
2804.00,90.58
2803.00,90.64
2802.00,90.70
2801.00,90.75
2800.00,90.80
2799.00,90.86
2798.00,90.91
2797.00,90.97
2796.00,91.02
2795.00,91.07
2794.00,91.13
2793.00,91.17
2792.00,91.22
2791.00,91.27
2790.00,91.32
2789.00,91.37
2788.00,91.42
2787.00,91.47
2786.00,91.51
2785.00,91.56
2784.00,91.60
2783.00,91.64
2782.00,91.68
2781.00,91.72
2780.00,91.76
2779.00,91.80
2778.00,91.84
2777.00,91.88
2776.00,91.92
2775.00,91.96
2774.00,92.00
2773.00,92.04
2772.00,92.08
2771.00,92.11
2770.00,92.15
2769.00,92.18
2768.00,92.21
2767.00,92.24
2766.00,92.28
2765.00,92.31
2764.00,92.34
2763.00,92.37
2762.00,92.41
2761.00,92.44
2760.00,92.46
2759.00,92.49
2758.00,92.51
2757.00,92.54
2756.00,92.57
2755.00,92.60
2754.00,92.63
2753.00,92.66
2752.00,92.68
2751.00,92.70
2750.00,92.73
2749.00,92.75
2748.00,92.77
2747.00,92.79
2746.00,92.81
2745.00,92.83
2744.00,92.85
2743.00,92.87
2742.00,92.89
2741.00,92.91
2740.00,92.93
2739.00,92.95
2738.00,92.97
2737.00,92.99
2736.00,93.01
2735.00,93.03
2734.00,93.04
2733.00,93.06
2732.00,93.08
2731.00,93.09
2730.00,93.11
2729.00,93.12
2728.00,93.14
2727.00,93.16
2726.00,93.18
2725.00,93.20
2724.00,93.22
2723.00,93.23
2722.00,93.25
2721.00,93.27
2720.00,93.29
2719.00,93.31
2718.00,93.33
2717.00,93.36
2716.00,93.38
2715.00,93.41
2714.00,93.43
2713.00,93.45
2712.00,93.48
2711.00,93.50
2710.00,93.52
2709.00,93.54
2708.00,93.56
2707.00,93.58
2706.00,93.60
2705.00,93.62
2704.00,93.65
2703.00,93.67
2702.00,93.70
2701.00,93.72
2700.00,93.75
2699.00,93.77
2698.00,93.80
2697.00,93.82
2696.00,93.85
2695.00,93.87
2694.00,93.90
2693.00,93.93
2692.00,93.95
2691.00,93.98
2690.00,94.01
2689.00,94.03
2688.00,94.05
2687.00,94.08
2686.00,94.11
2685.00,94.14
2684.00,94.17
2683.00,94.20
2682.00,94.23
2681.00,94.26
2680.00,94.29
2679.00,94.32
2678.00,94.35
2677.00,94.38
2676.00,94.41
2675.00,94.45
2674.00,94.48
2673.00,94.51
2672.00,94.55
2671.00,94.58
2670.00,94.61
2669.00,94.64
2668.00,94.67
2667.00,94.70
2666.00,94.73
2665.00,94.76
2664.00,94.80
2663.00,94.83
2662.00,94.86
2661.00,94.89
2660.00,94.92
2659.00,94.95
2658.00,94.98
2657.00,95.01
2656.00,95.04
2655.00,95.07
2654.00,95.10
2653.00,95.14
2652.00,95.17
2651.00,95.20
2650.00,95.23
2649.00,95.26
2648.00,95.29
2647.00,95.32
2646.00,95.35
2645.00,95.38
2644.00,95.41
2643.00,95.44
2642.00,95.47
2641.00,95.50
2640.00,95.53
2639.00,95.56
2638.00,95.59
2637.00,95.62
2636.00,95.64
2635.00,95.67
2634.00,95.69
2633.00,95.72
2632.00,95.75
2631.00,95.77
2630.00,95.80
2629.00,95.82
2628.00,95.84
2627.00,95.87
2626.00,95.89
2625.00,95.92
2624.00,95.94
2623.00,95.97
2622.00,95.99
2621.00,96.02
2620.00,96.04
2619.00,96.06
2618.00,96.09
2617.00,96.11
2616.00,96.13
2615.00,96.15
2614.00,96.16
2613.00,96.18
2612.00,96.20
2611.00,96.22
2610.00,96.24
2609.00,96.26
2608.00,96.28
2607.00,96.30
2606.00,96.32
2605.00,96.34
2604.00,96.36
2603.00,96.37
2602.00,96.39
2601.00,96.40
2600.00,96.42
2599.00,96.43
2598.00,96.45
2597.00,96.46
2596.00,96.48
2595.00,96.49
2594.00,96.51
2593.00,96.53
2592.00,96.54
2591.00,96.55
2590.00,96.56
2589.00,96.57
2588.00,96.58
2587.00,96.60
2586.00,96.62
2585.00,96.64
2584.00,96.65
2583.00,96.67
2582.00,96.67
2581.00,96.68
2580.00,96.69
2579.00,96.70
2578.00,96.71
2577.00,96.73
2576.00,96.74
2575.00,96.75
2574.00,96.76
2573.00,96.77
2572.00,96.77
2571.00,96.78
2570.00,96.79
2569.00,96.80
2568.00,96.81
2567.00,96.83
2566.00,96.84
2565.00,96.85
2564.00,96.85
2563.00,96.86
2562.00,96.87
2561.00,96.89
2560.00,96.90
2559.00,96.91
2558.00,96.92
2557.00,96.92
2556.00,96.92
2555.00,96.93
2554.00,96.94
2553.00,96.95
2552.00,96.96
2551.00,96.97
2550.00,96.98
2549.00,96.99
2548.00,97.00
2547.00,97.00
2546.00,97.01
2545.00,97.02
2544.00,97.03
2543.00,97.04
2542.00,97.04
2541.00,97.05
2540.00,97.06
2539.00,97.07
2538.00,97.07
2537.00,97.07
2536.00,97.08
2535.00,97.08
2534.00,97.09
2533.00,97.10
2532.00,97.11
2531.00,97.12
2530.00,97.13
2529.00,97.14
2528.00,97.15
2527.00,97.16
2526.00,97.17
2525.00,97.18
2524.00,97.18
2523.00,97.18
2522.00,97.18
2521.00,97.19
2520.00,97.20
2519.00,97.21
2518.00,97.22
2517.00,97.23
2516.00,97.24
2515.00,97.25
2514.00,97.26
2513.00,97.27
2512.00,97.28
2511.00,97.29
2510.00,97.29
2509.00,97.30
2508.00,97.30
2507.00,97.31
2506.00,97.32
2505.00,97.33
2504.00,97.33
2503.00,97.34
2502.00,97.35
2501.00,97.36
2500.00,97.37
2499.00,97.37
2498.00,97.37
2497.00,97.37
2496.00,97.38
2495.00,97.40
2494.00,97.41
2493.00,97.43
2492.00,97.45
2491.00,97.46
2490.00,97.47
2489.00,97.48
2488.00,97.49
2487.00,97.50
2486.00,97.51
2485.00,97.52
2484.00,97.53
2483.00,97.55
2482.00,97.56
2481.00,97.57
2480.00,97.58
2479.00,97.59
2478.00,97.60
2477.00,97.62
2476.00,97.63
2475.00,97.64
2474.00,97.65
2473.00,97.66
2472.00,97.67
2471.00,97.69
2470.00,97.70
2469.00,97.71
2468.00,97.72
2467.00,97.73
2466.00,97.75
2465.00,97.77
2464.00,97.78
2463.00,97.79
2462.00,97.80
2461.00,97.82
2460.00,97.83
2459.00,97.84
2458.00,97.86
2457.00,97.87
2456.00,97.88
2455.00,97.90
2454.00,97.91
2453.00,97.92
2452.00,97.93
2451.00,97.94
2450.00,97.95
2449.00,97.96
2448.00,97.97
2447.00,97.98
2446.00,98.00
2445.00,98.00
2444.00,98.01
2443.00,98.02
2442.00,98.03
2441.00,98.05
2440.00,98.06
2439.00,98.08
2438.00,98.09
2437.00,98.10
2436.00,98.11
2435.00,98.12
2434.00,98.13
2433.00,98.14
2432.00,98.16
2431.00,98.17
2430.00,98.18
2429.00,98.19
2428.00,98.19
2427.00,98.20
2426.00,98.20
2425.00,98.21
2424.00,98.21
2423.00,98.23
2422.00,98.24
2421.00,98.25
2420.00,98.25
2419.00,98.26
2418.00,98.27
2417.00,98.27
2416.00,98.28
2415.00,98.29
2414.00,98.30
2413.00,98.31
2412.00,98.31
2411.00,98.32
2410.00,98.33
2409.00,98.35
2408.00,98.36
2407.00,98.36
2406.00,98.37
2405.00,98.37
2404.00,98.37
2403.00,98.37
2402.00,98.37
2401.00,98.37
2400.00,98.37
2399.00,98.38
2398.00,98.38
2397.00,98.39
2396.00,98.40
2395.00,98.41
2394.00,98.42
2393.00,98.42
2392.00,98.42
2391.00,98.42
2390.00,98.43
2389.00,98.43
2388.00,98.44
2387.00,98.45
2386.00,98.45
2385.00,98.45
2384.00,98.45
2383.00,98.45
2382.00,98.46
2381.00,98.47
2380.00,98.48
2379.00,98.50
2378.00,98.51
2377.00,98.52
2376.00,98.53
2375.00,98.53
2374.00,98.54
2373.00,98.53
2372.00,98.52
2371.00,98.51
2370.00,98.50
2369.00,98.49
2368.00,98.49
2367.00,98.49
2366.00,98.50
2365.00,98.51
2364.00,98.52
2363.00,98.52
2362.00,98.52
2361.00,98.49
2360.00,98.46
2359.00,98.46
2358.00,98.48
2357.00,98.51
2356.00,98.54
2355.00,98.54
2354.00,98.53
2353.00,98.52
2352.00,98.51
2351.00,98.50
2350.00,98.50
2349.00,98.51
2348.00,98.52
2347.00,98.53
2346.00,98.52
2345.00,98.51
2344.00,98.48
2343.00,98.48
2342.00,98.48
2341.00,98.50
2340.00,98.51
2339.00,98.52
2338.00,98.52
2337.00,98.53
2336.00,98.54
2335.00,98.55
2334.00,98.55
2333.00,98.54
2332.00,98.51
2331.00,98.49
2330.00,98.47
2329.00,98.46
2328.00,98.46
2327.00,98.47
2326.00,98.48
2325.00,98.49
2324.00,98.49
2323.00,98.49
2322.00,98.49
2321.00,98.48
2320.00,98.47
2319.00,98.46
2318.00,98.46
2317.00,98.46
2316.00,98.46
2315.00,98.46
2314.00,98.46
2313.00,98.46
2312.00,98.45
2311.00,98.44
2310.00,98.43
2309.00,98.43
2308.00,98.42
2307.00,98.41
2306.00,98.41
2305.00,98.40
2304.00,98.40
2303.00,98.39
2302.00,98.39
2301.00,98.39
2300.00,98.39
2299.00,98.39
2298.00,98.39
2297.00,98.38
2296.00,98.37
2295.00,98.37
2294.00,98.37
2293.00,98.37
2292.00,98.37
2291.00,98.37
2290.00,98.36
2289.00,98.36
2288.00,98.35
2287.00,98.35
2286.00,98.35
2285.00,98.35
2284.00,98.35
2283.00,98.35
2282.00,98.35
2281.00,98.35
2280.00,98.34
2279.00,98.33
2278.00,98.32
2277.00,98.31
2276.00,98.30
2275.00,98.30
2274.00,98.30
2273.00,98.31
2272.00,98.30
2271.00,98.30
2270.00,98.29
2269.00,98.29
2268.00,98.29
2267.00,98.29
2266.00,98.30
2265.00,98.31
2264.00,98.30
2263.00,98.30
2262.00,98.28
2261.00,98.26
2260.00,98.25
2259.00,98.24
2258.00,98.24
2257.00,98.24
2256.00,98.23
2255.00,98.22
2254.00,98.22
2253.00,98.21
2252.00,98.21
2251.00,98.21
2250.00,98.22
2249.00,98.22
2248.00,98.21
2247.00,98.19
2246.00,98.18
2245.00,98.16
2244.00,98.15
2243.00,98.15
2242.00,98.15
2241.00,98.15
2240.00,98.14
2239.00,98.13
2238.00,98.12
2237.00,98.11
2236.00,98.11
2235.00,98.10
2234.00,98.10
2233.00,98.09
2232.00,98.08
2231.00,98.09
2230.00,98.09
2229.00,98.09
2228.00,98.07
2227.00,98.06
2226.00,98.05
2225.00,98.03
2224.00,98.02
2223.00,98.01
2222.00,98.02
2221.00,98.02
2220.00,98.02
2219.00,98.02
2218.00,98.02
2217.00,98.01
2216.00,98.01
2215.00,98.00
2214.00,98.00
2213.00,97.99
2212.00,97.99
2211.00,97.98
2210.00,97.98
2209.00,97.97
2208.00,97.96
2207.00,97.94
2206.00,97.91
2205.00,97.88
2204.00,97.86
2203.00,97.87
2202.00,97.88
2201.00,97.89
2200.00,97.89
2199.00,97.88
2198.00,97.86
2197.00,97.84
2196.00,97.83
2195.00,97.83
2194.00,97.83
2193.00,97.81
2192.00,97.79
2191.00,97.78
2190.00,97.79
2189.00,97.79
2188.00,97.80
2187.00,97.81
2186.00,97.82
2185.00,97.81
2184.00,97.77
2183.00,97.75
2182.00,97.74
2181.00,97.73
2180.00,97.72
2179.00,97.71
2178.00,97.70
2177.00,97.68
2176.00,97.67
2175.00,97.67
2174.00,97.67
2173.00,97.68
2172.00,97.69
2171.00,97.70
2170.00,97.70
2169.00,97.70
2168.00,97.68
2167.00,97.68
2166.00,97.69
2165.00,97.70
2164.00,97.71
2163.00,97.71
2162.00,97.71
2161.00,97.69
2160.00,97.66
2159.00,97.64
2158.00,97.62
2157.00,97.60
2156.00,97.57
2155.00,97.57
2154.00,97.57
2153.00,97.58
2152.00,97.59
2151.00,97.59
2150.00,97.60
2149.00,97.59
2148.00,97.58
2147.00,97.56
2146.00,97.56
2145.00,97.54
2144.00,97.53
2143.00,97.51
2142.00,97.50
2141.00,97.50
2140.00,97.50
2139.00,97.52
2138.00,97.53
2137.00,97.53
2136.00,97.51
2135.00,97.50
2134.00,97.50
2133.00,97.50
2132.00,97.48
2131.00,97.47
2130.00,97.47
2129.00,97.47
2128.00,97.47
2127.00,97.46
2126.00,97.46
2125.00,97.46
2124.00,97.46
2123.00,97.47
2122.00,97.48
2121.00,97.48
2120.00,97.48
2119.00,97.48
2118.00,97.48
2117.00,97.47
2116.00,97.46
2115.00,97.46
2114.00,97.46
2113.00,97.47
2112.00,97.47
2111.00,97.48
2110.00,97.50
2109.00,97.51
2108.00,97.51
2107.00,97.51
2106.00,97.51
2105.00,97.52
2104.00,97.52
2103.00,97.52
2102.00,97.52
2101.00,97.51
2100.00,97.52
2099.00,97.53
2098.00,97.54
2097.00,97.55
2096.00,97.55
2095.00,97.56
2094.00,97.57
2093.00,97.57
2092.00,97.57
2091.00,97.57
2090.00,97.59
2089.00,97.60
2088.00,97.61
2087.00,97.62
2086.00,97.62
2085.00,97.63
2084.00,97.63
2083.00,97.63
2082.00,97.64
2081.00,97.64
2080.00,97.65
2079.00,97.66
2078.00,97.68
2077.00,97.70
2076.00,97.71
2075.00,97.72
2074.00,97.73
2073.00,97.73
2072.00,97.73
2071.00,97.73
2070.00,97.73
2069.00,97.72
2068.00,97.72
2067.00,97.73
2066.00,97.76
2065.00,97.77
2064.00,97.77
2063.00,97.76
2062.00,97.76
2061.00,97.77
2060.00,97.78
2059.00,97.79
2058.00,97.81
2057.00,97.82
2056.00,97.83
2055.00,97.83
2054.00,97.84
2053.00,97.84
2052.00,97.86
2051.00,97.88
2050.00,97.90
2049.00,97.91
2048.00,97.91
2047.00,97.91
2046.00,97.91
2045.00,97.90
2044.00,97.90
2043.00,97.92
2042.00,97.95
2041.00,97.98
2040.00,97.99
2039.00,98.01
2038.00,98.03
2037.00,98.03
2036.00,98.02
2035.00,98.02
2034.00,98.02
2033.00,98.02
2032.00,98.02
2031.00,98.03
2030.00,98.05
2029.00,98.06
2028.00,98.04
2027.00,98.04
2026.00,98.06
2025.00,98.07
2024.00,98.08
2023.00,98.10
2022.00,98.11
2021.00,98.10
2020.00,98.07
2019.00,98.06
2018.00,98.07
2017.00,98.10
2016.00,98.13
2015.00,98.16
2014.00,98.19
2013.00,98.20
2012.00,98.20
2011.00,98.20
2010.00,98.20
2009.00,98.19
2008.00,98.18
2007.00,98.17
2006.00,98.19
2005.00,98.20
2004.00,98.22
2003.00,98.25
2002.00,98.28
2001.00,98.30
2000.00,98.30
1999.00,98.29
1998.00,98.29
1997.00,98.28
1996.00,98.26
1995.00,98.27
1994.00,98.28
1993.00,98.30
1992.00,98.31
1991.00,98.33
1990.00,98.34
1989.00,98.35
1988.00,98.35
1987.00,98.36
1986.00,98.37
1985.00,98.38
1984.00,98.39
1983.00,98.40
1982.00,98.42
1981.00,98.42
1980.00,98.41
1979.00,98.40
1978.00,98.40
1977.00,98.40
1976.00,98.40
1975.00,98.40
1974.00,98.40
1973.00,98.38
1972.00,98.37
1971.00,98.36
1970.00,98.36
1969.00,98.37
1968.00,98.37
1967.00,98.40
1966.00,98.43
1965.00,98.44
1964.00,98.44
1963.00,98.43
1962.00,98.42
1961.00,98.40
1960.00,98.40
1959.00,98.42
1958.00,98.44
1957.00,98.44
1956.00,98.43
1955.00,98.44
1954.00,98.44
1953.00,98.44
1952.00,98.43
1951.00,98.43
1950.00,98.44
1949.00,98.44
1948.00,98.43
1947.00,98.42
1946.00,98.41
1945.00,98.41
1944.00,98.41
1943.00,98.42
1942.00,98.44
1941.00,98.45
1940.00,98.45
1939.00,98.46
1938.00,98.46
1937.00,98.45
1936.00,98.45
1935.00,98.45
1934.00,98.47
1933.00,98.48
1932.00,98.48
1931.00,98.48
1930.00,98.48
1929.00,98.48
1928.00,98.45
1927.00,98.44
1926.00,98.43
1925.00,98.43
1924.00,98.44
1923.00,98.44
1922.00,98.45
1921.00,98.45
1920.00,98.44
1919.00,98.45
1918.00,98.46
1917.00,98.46
1916.00,98.46
1915.00,98.46
1914.00,98.47
1913.00,98.46
1912.00,98.46
1911.00,98.46
1910.00,98.46
1909.00,98.47
1908.00,98.46
1907.00,98.46
1906.00,98.46
1905.00,98.46
1904.00,98.46
1903.00,98.46
1902.00,98.47
1901.00,98.47
1900.00,98.46
1899.00,98.46
1898.00,98.46
1897.00,98.45
1896.00,98.44
1895.00,98.44
1894.00,98.43
1893.00,98.43
1892.00,98.43
1891.00,98.44
1890.00,98.46
1889.00,98.46
1888.00,98.46
1887.00,98.46
1886.00,98.46
1885.00,98.45
1884.00,98.44
1883.00,98.44
1882.00,98.44
1881.00,98.44
1880.00,98.43
1879.00,98.43
1878.00,98.44
1877.00,98.44
1876.00,98.43
1875.00,98.42
1874.00,98.41
1873.00,98.39
1872.00,98.38
1871.00,98.38
1870.00,98.39
1869.00,98.40
1868.00,98.40
1867.00,98.41
1866.00,98.41
1865.00,98.41
1864.00,98.40
1863.00,98.40
1862.00,98.40
1861.00,98.40
1860.00,98.40
1859.00,98.40
1858.00,98.40
1857.00,98.41
1856.00,98.41
1855.00,98.41
1854.00,98.41
1853.00,98.40
1852.00,98.38
1851.00,98.37
1850.00,98.36
1849.00,98.34
1848.00,98.31
1847.00,98.30
1846.00,98.31
1845.00,98.31
1844.00,98.32
1843.00,98.33
1842.00,98.35
1841.00,98.36
1840.00,98.36
1839.00,98.35
1838.00,98.34
1837.00,98.33
1836.00,98.32
1835.00,98.31
1834.00,98.29
1833.00,98.28
1832.00,98.27
1831.00,98.26
1830.00,98.26
1829.00,98.26
1828.00,98.26
1827.00,98.26
1826.00,98.27
1825.00,98.27
1824.00,98.27
1823.00,98.27
1822.00,98.27
1821.00,98.26
1820.00,98.25
1819.00,98.25
1818.00,98.24
1817.00,98.23
1816.00,98.21
1815.00,98.19
1814.00,98.19
1813.00,98.18
1812.00,98.17
1811.00,98.17
1810.00,98.16
1809.00,98.15
1808.00,98.14
1807.00,98.12
1806.00,98.10
1805.00,98.08
1804.00,98.05
1803.00,98.04
1802.00,98.04
1801.00,98.03
1800.00,98.02
1799.00,98.01
1798.00,98.00
1797.00,97.98
1796.00,97.95
1795.00,97.93
1794.00,97.92
1793.00,97.91
1792.00,97.90
1791.00,97.90
1790.00,97.89
1789.00,97.88
1788.00,97.86
1787.00,97.85
1786.00,97.84
1785.00,97.82
1784.00,97.80
1783.00,97.78
1782.00,97.77
1781.00,97.76
1780.00,97.75
1779.00,97.73
1778.00,97.71
1777.00,97.68
1776.00,97.65
1775.00,97.64
1774.00,97.63
1773.00,97.61
1772.00,97.57
1771.00,97.54
1770.00,97.54
1769.00,97.54
1768.00,97.53
1767.00,97.52
1766.00,97.50
1765.00,97.47
1764.00,97.44
1763.00,97.42
1762.00,97.40
1761.00,97.37
1760.00,97.35
1759.00,97.34
1758.00,97.33
1757.00,97.30
1756.00,97.26
1755.00,97.22
1754.00,97.19
1753.00,97.15
1752.00,97.11
1751.00,97.07
1750.00,97.05
1749.00,97.02
1748.00,96.98
1747.00,96.95
1746.00,96.93
1745.00,96.89
1744.00,96.85
1743.00,96.81
1742.00,96.78
1741.00,96.74
1740.00,96.66
1739.00,96.58
1738.00,96.51
1737.00,96.46
1736.00,96.43
1735.00,96.39
1734.00,96.32
1733.00,96.24
1732.00,96.19
1731.00,96.15
1730.00,96.11
1729.00,96.06
1728.00,96.00
1727.00,95.94
1726.00,95.89
1725.00,95.83
1724.00,95.75
1723.00,95.65
1722.00,95.56
1721.00,95.49
1720.00,95.42
1719.00,95.36
1718.00,95.27
1717.00,95.18
1716.00,95.10
1715.00,95.04
1714.00,94.98
1713.00,94.91
1712.00,94.82
1711.00,94.72
1710.00,94.62
1709.00,94.50
1708.00,94.39
1707.00,94.27
1706.00,94.12
1705.00,93.95
1704.00,93.79
1703.00,93.67
1702.00,93.58
1701.00,93.43
1700.00,93.23
1699.00,93.08
1698.00,92.98
1697.00,92.87
1696.00,92.67
1695.00,92.45
1694.00,92.27
1693.00,92.11
1692.00,91.94
1691.00,91.75
1690.00,91.53
1689.00,91.31
1688.00,91.09
1687.00,90.91
1686.00,90.72
1685.00,90.45
1684.00,90.10
1683.00,89.81
1682.00,89.61
1681.00,89.42
1680.00,89.19
1679.00,88.95
1678.00,88.73
1677.00,88.50
1676.00,88.23
1675.00,87.93
1674.00,87.66
1673.00,87.42
1672.00,87.20
1671.00,86.97
1670.00,86.71
1669.00,86.43
1668.00,86.17
1667.00,85.94
1666.00,85.75
1665.00,85.56
1664.00,85.33
1663.00,85.08
1662.00,84.85
1661.00,84.64
1660.00,84.43
1659.00,84.23
1658.00,84.03
1657.00,83.84
1656.00,83.70
1655.00,83.60
1654.00,83.44
1653.00,83.19
1652.00,82.98
1651.00,82.87
1650.00,82.83
1649.00,82.80
1648.00,82.75
1647.00,82.67
1646.00,82.61
1645.00,82.57
1644.00,82.55
1643.00,82.55
1642.00,82.56
1641.00,82.57
1640.00,82.57
1639.00,82.60
1638.00,82.68
1637.00,82.78
1636.00,82.89
1635.00,83.03
1634.00,83.18
1633.00,83.33
1632.00,83.46
1631.00,83.60
1630.00,83.75
1629.00,83.93
1628.00,84.11
1627.00,84.30
1626.00,84.51
1625.00,84.74
1624.00,84.99
1623.00,85.24
1622.00,85.49
1621.00,85.71
1620.00,85.93
1619.00,86.18
1618.00,86.45
1617.00,86.74
1616.00,87.00
1615.00,87.23
1614.00,87.45
1613.00,87.66
1612.00,87.88
1611.00,88.10
1610.00,88.32
1609.00,88.53
1608.00,88.74
1607.00,88.93
1606.00,89.12
1605.00,89.31
1604.00,89.48
1603.00,89.65
1602.00,89.80
1601.00,89.95
1600.00,90.09
1599.00,90.23
1598.00,90.35
1597.00,90.47
1596.00,90.60
1595.00,90.72
1594.00,90.83
1593.00,90.94
1592.00,91.04
1591.00,91.14
1590.00,91.24
1589.00,91.34
1588.00,91.43
1587.00,91.52
1586.00,91.60
1585.00,91.68
1584.00,91.76
1583.00,91.84
1582.00,91.90
1581.00,91.96
1580.00,92.03
1579.00,92.11
1578.00,92.20
1577.00,92.29
1576.00,92.34
1575.00,92.39
1574.00,92.43
1573.00,92.47
1572.00,92.52
1571.00,92.58
1570.00,92.64
1569.00,92.69
1568.00,92.74
1567.00,92.79
1566.00,92.83
1565.00,92.86
1564.00,92.86
1563.00,92.83
1562.00,92.82
1561.00,92.85
1560.00,92.89
1559.00,92.91
1558.00,92.95
1557.00,93.01
1556.00,93.06
1555.00,93.10
1554.00,93.12
1553.00,93.13
1552.00,93.15
1551.00,93.16
1550.00,93.18
1549.00,93.18
1548.00,93.17
1547.00,93.15
1546.00,93.13
1545.00,93.11
1544.00,93.10
1543.00,93.12
1542.00,93.16
1541.00,93.21
1540.00,93.21
1539.00,93.20
1538.00,93.18
1537.00,93.17
1536.00,93.16
1535.00,93.17
1534.00,93.17
1533.00,93.16
1532.00,93.16
1531.00,93.15
1530.00,93.13
1529.00,93.10
1528.00,93.07
1527.00,93.04
1526.00,93.01
1525.00,92.97
1524.00,92.94
1523.00,92.92
1522.00,92.90
1521.00,92.85
1520.00,92.80
1519.00,92.78
1518.00,92.76
1517.00,92.73
1516.00,92.69
1515.00,92.65
1514.00,92.62
1513.00,92.55
1512.00,92.47
1511.00,92.38
1510.00,92.31
1509.00,92.28
1508.00,92.25
1507.00,92.20
1506.00,92.13
1505.00,92.06
1504.00,92.00
1503.00,91.93
1502.00,91.85
1501.00,91.75
1500.00,91.64
1499.00,91.55
1498.00,91.46
1497.00,91.33
1496.00,91.16
1495.00,91.00
1494.00,90.83
1493.00,90.65
1492.00,90.46
1491.00,90.28
1490.00,90.09
1489.00,89.89
1488.00,89.70
1487.00,89.51
1486.00,89.32
1485.00,89.11
1484.00,88.88
1483.00,88.65
1482.00,88.39
1481.00,88.09
1480.00,87.79
1479.00,87.49
1478.00,87.18
1477.00,86.83
1476.00,86.47
1475.00,86.14
1474.00,85.78
1473.00,85.36
1472.00,84.91
1471.00,84.52
1470.00,84.16
1469.00,83.81
1468.00,83.44
1467.00,83.07
1466.00,82.66
1465.00,82.22
1464.00,81.78
1463.00,81.39
1462.00,81.05
1461.00,80.72
1460.00,80.41
1459.00,80.13
1458.00,79.83
1457.00,79.50
1456.00,79.25
1455.00,79.10
1454.00,79.01
1453.00,78.92
1452.00,78.83
1451.00,78.75
1450.00,78.68
1449.00,78.61
1448.00,78.54
1447.00,78.49
1446.00,78.43
1445.00,78.35
1444.00,78.26
1443.00,78.16
1442.00,78.04
1441.00,77.90
1440.00,77.75
1439.00,77.62
1438.00,77.49
1437.00,77.33
1436.00,77.17
1435.00,77.04
1434.00,76.93
1433.00,76.82
1432.00,76.70
1431.00,76.59
1430.00,76.47
1429.00,76.35
1428.00,76.23
1427.00,76.14
1426.00,76.05
1425.00,75.95
1424.00,75.85
1423.00,75.76
1422.00,75.68
1421.00,75.61
1420.00,75.54
1419.00,75.49
1418.00,75.46
1417.00,75.45
1416.00,75.45
1415.00,75.48
1414.00,75.50
1413.00,75.52
1412.00,75.55
1411.00,75.60
1410.00,75.65
1409.00,75.70
1408.00,75.76
1407.00,75.84
1406.00,75.94
1405.00,76.06
1404.00,76.19
1403.00,76.33
1402.00,76.46
1401.00,76.59
1400.00,76.73
1399.00,76.88
1398.00,77.03
1397.00,77.17
1396.00,77.31
1395.00,77.47
1394.00,77.61
1393.00,77.71
1392.00,77.80
1391.00,77.86
1390.00,77.91
1389.00,77.95
1388.00,77.98
1387.00,77.99
1386.00,77.99
1385.00,77.96
1384.00,77.91
1383.00,77.85
1382.00,77.77
1381.00,77.67
1380.00,77.55
1379.00,77.43
1378.00,77.30
1377.00,77.17
1376.00,77.04
1375.00,76.91
1374.00,76.79
1373.00,76.67
1372.00,76.57
1371.00,76.47
1370.00,76.37
1369.00,76.26
1368.00,76.16
1367.00,76.06
1366.00,75.97
1365.00,75.88
1364.00,75.79
1363.00,75.71
1362.00,75.65
1361.00,75.60
1360.00,75.56
1359.00,75.53
1358.00,75.49
1357.00,75.44
1356.00,75.40
1355.00,75.35
1354.00,75.30
1353.00,75.25
1352.00,75.19
1351.00,75.13
1350.00,75.07
1349.00,75.01
1348.00,74.96
1347.00,74.91
1346.00,74.87
1345.00,74.84
1344.00,74.83
1343.00,74.83
1342.00,74.86
1341.00,74.90
1340.00,74.97
1339.00,75.07
1338.00,75.19
1337.00,75.33
1336.00,75.47
1335.00,75.62
1334.00,75.78
1333.00,75.93
1332.00,76.08
1331.00,76.23
1330.00,76.38
1329.00,76.52
1328.00,76.66
1327.00,76.79
1326.00,76.91
1325.00,77.02
1324.00,77.12
1323.00,77.22
1322.00,77.31
1321.00,77.40
1320.00,77.49
1319.00,77.58
1318.00,77.68
1317.00,77.77
1316.00,77.88
1315.00,77.99
1314.00,78.11
1313.00,78.23
1312.00,78.36
1311.00,78.50
1310.00,78.64
1309.00,78.79
1308.00,78.93
1307.00,79.08
1306.00,79.23
1305.00,79.38
1304.00,79.52
1303.00,79.66
1302.00,79.78
1301.00,79.89
1300.00,79.99
1299.00,80.08
1298.00,80.16
1297.00,80.22
1296.00,80.27
1295.00,80.31
1294.00,80.33
1293.00,80.35
1292.00,80.35
1291.00,80.34
1290.00,80.32
1289.00,80.29
1288.00,80.26
1287.00,80.22
1286.00,80.18
1285.00,80.14
1284.00,80.09
1283.00,80.05
1282.00,80.00
1281.00,79.94
1280.00,79.89
1279.00,79.82
1278.00,79.75
1277.00,79.67
1276.00,79.58
1275.00,79.47
1274.00,79.35
1273.00,79.22
1272.00,79.07
1271.00,78.92
1270.00,78.76
1269.00,78.59
1268.00,78.42
1267.00,78.25
1266.00,78.09
1265.00,77.93
1264.00,77.78
1263.00,77.66
1262.00,77.55
1261.00,77.45
1260.00,77.37
1259.00,77.31
1258.00,77.28
1257.00,77.25
1256.00,77.24
1255.00,77.24
1254.00,77.25
1253.00,77.26
1252.00,77.27
1251.00,77.30
1250.00,77.33
1249.00,77.36
1248.00,77.39
1247.00,77.43
1246.00,77.48
1245.00,77.53
1244.00,77.58
1243.00,77.64
1242.00,77.71
1241.00,77.76
1240.00,77.82
1239.00,77.89
1238.00,77.95
1237.00,78.02
1236.00,78.10
1235.00,78.18
1234.00,78.27
1233.00,78.37
1232.00,78.47
1231.00,78.59
1230.00,78.72
1229.00,78.86
1228.00,79.02
1227.00,79.20
1226.00,79.38
1225.00,79.58
1224.00,79.79
1223.00,80.00
1222.00,80.22
1221.00,80.43
1220.00,80.65
1219.00,80.87
1218.00,81.08
1217.00,81.28
1216.00,81.47
1215.00,81.64
1214.00,81.79
1213.00,81.92
1212.00,82.02
1211.00,82.10
1210.00,82.15
1209.00,82.19
1208.00,82.20
1207.00,82.19
1206.00,82.16
1205.00,82.11
1204.00,82.04
1203.00,81.97
1202.00,81.90
1201.00,81.82
1200.00,81.76
1199.00,81.69
1198.00,81.63
1197.00,81.57
1196.00,81.52
1195.00,81.48
1194.00,81.44
1193.00,81.40
1192.00,81.37
1191.00,81.36
1190.00,81.35
1189.00,81.34
1188.00,81.34
1187.00,81.35
1186.00,81.37
1185.00,81.41
1184.00,81.45
1183.00,81.49
1182.00,81.54
1181.00,81.59
1180.00,81.63
1179.00,81.67
1178.00,81.69
1177.00,81.70
1176.00,81.69
1175.00,81.63
1174.00,81.52
1173.00,81.36
1172.00,81.14
1171.00,80.86
1170.00,80.52
1169.00,80.11
1168.00,79.64
1167.00,79.10
1166.00,78.52
1165.00,77.89
1164.00,77.21
1163.00,76.52
1162.00,75.80
1161.00,75.08
1160.00,74.37
1159.00,73.68
1158.00,73.02
1157.00,72.39
1156.00,71.80
1155.00,71.25
1154.00,70.74
1153.00,70.28
1152.00,69.86
1151.00,69.50
1150.00,69.20
1149.00,68.95
1148.00,68.75
1147.00,68.61
1146.00,68.52
1145.00,68.47
1144.00,68.45
1143.00,68.47
1142.00,68.50
1141.00,68.54
1140.00,68.57
1139.00,68.59
1138.00,68.60
1137.00,68.57
1136.00,68.53
1135.00,68.46
1134.00,68.38
1133.00,68.29
1132.00,68.18
1131.00,68.06
1130.00,67.95
1129.00,67.81
1128.00,67.66
1127.00,67.50
1126.00,67.33
1125.00,67.12
1124.00,66.89
1123.00,66.64
1122.00,66.36
1121.00,66.04
1120.00,65.67
1119.00,65.26
1118.00,64.80
1117.00,64.29
1116.00,63.72
1115.00,63.10
1114.00,62.44
1113.00,61.72
1112.00,60.97
1111.00,60.20
1110.00,59.44
1109.00,58.69
1108.00,57.97
1107.00,57.31
1106.00,56.73
1105.00,56.23
1104.00,55.83
1103.00,55.55
1102.00,55.38
1101.00,55.31
1100.00,55.33
1099.00,55.44
1098.00,55.60
1097.00,55.77
1096.00,55.90
1095.00,55.97
1094.00,55.94
1093.00,55.77
1092.00,55.44
1091.00,54.96
1090.00,54.34
1089.00,53.57
1088.00,52.68
1087.00,51.71
1086.00,50.70
1085.00,49.66
1084.00,48.62
1083.00,47.62
1082.00,46.71
1081.00,45.86
1080.00,45.09
1079.00,44.43
1078.00,43.88
1077.00,43.41
1076.00,43.00
1075.00,42.68
1074.00,42.41
1073.00,42.14
1072.00,41.85
1071.00,41.53
1070.00,41.18
1069.00,40.78
1068.00,40.33
1067.00,39.85
1066.00,39.35
1065.00,38.81
1064.00,38.24
1063.00,37.68
1062.00,37.12
1061.00,36.56
1060.00,35.99
1059.00,35.45
1058.00,34.94
1057.00,34.45
1056.00,33.99
1055.00,33.59
1054.00,33.25
1053.00,32.97
1052.00,32.76
1051.00,32.64
1050.00,32.60
1049.00,32.62
1048.00,32.65
1047.00,32.73
1046.00,32.81
1045.00,32.87
1044.00,32.88
1043.00,32.85
1042.00,32.77
1041.00,32.62
1040.00,32.40
1039.00,32.14
1038.00,31.84
1037.00,31.49
1036.00,31.10
1035.00,30.69
1034.00,30.30
1033.00,29.90
1032.00,29.51
1031.00,29.17
1030.00,28.91
1029.00,28.72
1028.00,28.59
1027.00,28.57
1026.00,28.64
1025.00,28.79
1024.00,29.01
1023.00,29.30
1022.00,29.64
1021.00,29.98
1020.00,30.30
1019.00,30.61
1018.00,30.89
1017.00,31.13
1016.00,31.34
1015.00,31.54
1014.00,31.77
1013.00,32.03
1012.00,32.34
1011.00,32.74
1010.00,33.24
1009.00,33.83
1008.00,34.51
1007.00,35.29
1006.00,36.16
1005.00,37.07
1004.00,38.00
1003.00,38.93
1002.00,39.83
1001.00,40.64
1000.00,41.35
999.00,41.95
998.00,42.43
997.00,42.76
996.00,42.96
995.00,43.07
994.00,43.12
993.00,43.14
992.00,43.14
991.00,43.19
990.00,43.31
989.00,43.50
988.00,43.78
987.00,44.15
986.00,44.61
985.00,45.12
984.00,45.65
983.00,46.22
982.00,46.82
981.00,47.46
980.00,48.17
979.00,48.96
978.00,49.89
977.00,50.94
976.00,52.10
975.00,53.36
974.00,54.65
973.00,55.88
972.00,56.98
971.00,57.91
970.00,58.63
969.00,59.16
968.00,59.55
967.00,59.88
966.00,60.23
965.00,60.69
964.00,61.32
963.00,62.16
962.00,63.20
961.00,64.39
960.00,65.68
959.00,67.00
958.00,68.28
957.00,69.45
956.00,70.47
955.00,71.34
954.00,72.05
953.00,72.61
952.00,73.04
951.00,73.37
950.00,73.61
949.00,73.76
948.00,73.85
947.00,73.89
946.00,73.90
945.00,73.88
944.00,73.83
943.00,73.76
942.00,73.67
941.00,73.56
940.00,73.42
939.00,73.28
938.00,73.12
937.00,72.93
936.00,72.71
935.00,72.48
934.00,72.22
933.00,71.94
932.00,71.63
931.00,71.32
930.00,70.98
929.00,70.61
928.00,70.21
927.00,69.81
926.00,69.41
925.00,69.03
924.00,68.67
923.00,68.35
922.00,68.09
921.00,67.89
920.00,67.76
919.00,67.74
918.00,67.81
917.00,67.97
916.00,68.20
915.00,68.50
914.00,68.84
913.00,69.18
912.00,69.53
911.00,69.85
910.00,70.13
909.00,70.34
908.00,70.49
907.00,70.57
906.00,70.61
905.00,70.60
904.00,70.54
903.00,70.46
902.00,70.37
901.00,70.28
900.00,70.20
899.00,70.14
898.00,70.12
897.00,70.12
896.00,70.14
895.00,70.20
894.00,70.29
893.00,70.42
892.00,70.58
891.00,70.76
890.00,70.96
889.00,71.16
888.00,71.34
887.00,71.50
886.00,71.63
885.00,71.71
884.00,71.73
883.00,71.69
882.00,71.58
881.00,71.40
880.00,71.13
879.00,70.79
878.00,70.37
877.00,69.90
876.00,69.37
875.00,68.83
874.00,68.30
873.00,67.76
872.00,67.25
871.00,66.77
870.00,66.37
869.00,66.02
868.00,65.73
867.00,65.52
866.00,65.40
865.00,65.36
864.00,65.39
863.00,65.49
862.00,65.65
861.00,65.85
860.00,66.09
859.00,66.36
858.00,66.66
857.00,66.94
856.00,67.20
855.00,67.45
854.00,67.66
853.00,67.83
852.00,67.95
851.00,68.04
850.00,68.08
849.00,68.06
848.00,68.00
847.00,67.92
846.00,67.83
845.00,67.72
844.00,67.58
843.00,67.45
842.00,67.31
841.00,67.15
840.00,66.97
839.00,66.78
838.00,66.58
837.00,66.37
836.00,66.14
835.00,65.88
834.00,65.61
833.00,65.29
832.00,64.92
831.00,64.52
830.00,64.09
829.00,63.60
828.00,63.04
827.00,62.42
826.00,61.78
825.00,61.09
824.00,60.39
823.00,59.70
822.00,59.08
821.00,58.53
820.00,58.07
819.00,57.76
818.00,57.58
817.00,57.54
816.00,57.62
815.00,57.84
814.00,58.18
813.00,58.59
812.00,59.05
811.00,59.54
810.00,60.03
809.00,60.47
808.00,60.85
807.00,61.18
806.00,61.45
805.00,61.66
804.00,61.80
803.00,61.91
802.00,61.98
801.00,62.00
800.00,61.98
799.00,61.91
798.00,61.81
797.00,61.66
796.00,61.45
795.00,61.19
794.00,60.88
793.00,60.50
792.00,60.05
791.00,59.54
790.00,58.96
789.00,58.31
788.00,57.57
787.00,56.79
786.00,55.98
785.00,55.16
784.00,54.36
783.00,53.61
782.00,52.95
781.00,52.39
780.00,51.91
779.00,51.53
778.00,51.26
777.00,51.08
776.00,50.98
775.00,50.97
774.00,51.03
773.00,51.14
772.00,51.29
771.00,51.49
770.00,51.73
769.00,51.99
768.00,52.24
767.00,52.49
766.00,52.74
765.00,52.95
764.00,53.13
763.00,53.29
762.00,53.44
761.00,53.56
760.00,53.64
759.00,53.70
758.00,53.74
757.00,53.75
756.00,53.73
755.00,53.70
754.00,53.68
753.00,53.64
752.00,53.58
751.00,53.51
750.00,53.44
749.00,53.34
748.00,53.22
747.00,53.10
746.00,52.99
745.00,52.88
744.00,52.78
743.00,52.68
742.00,52.59
741.00,52.49
740.00,52.36
739.00,52.23
738.00,52.10
737.00,51.96
736.00,51.82
735.00,51.69
734.00,51.57
733.00,51.44
732.00,51.29
731.00,51.14
730.00,51.01
729.00,50.87
728.00,50.71
727.00,50.56
726.00,50.41
725.00,50.23
724.00,50.03
723.00,49.85
722.00,49.67
721.00,49.48
720.00,49.24
719.00,49.00
718.00,48.78
717.00,48.55
716.00,48.29
715.00,48.03
714.00,47.76
713.00,47.49
712.00,47.20
711.00,46.94
710.00,46.68
709.00,46.42
708.00,46.15
707.00,45.91
706.00,45.72
705.00,45.53
704.00,45.34
703.00,45.18
702.00,45.05
701.00,44.93
700.00,44.80
699.00,44.70
698.00,44.63
697.00,44.57
696.00,44.49
695.00,44.42
694.00,44.38
693.00,44.35
692.00,44.30
691.00,44.25
690.00,44.21
689.00,44.16
688.00,44.07
687.00,43.99
686.00,43.92
685.00,43.83
684.00,43.72
683.00,43.64
682.00,43.59
681.00,43.53
680.00,43.43
679.00,43.34
678.00,43.27
677.00,43.17
676.00,43.05
675.00,42.95
674.00,42.87
673.00,42.79
672.00,42.69
671.00,42.62
670.00,42.58
669.00,42.47
668.00,42.22
667.00,42.00
666.00,41.90
665.00,41.82
664.00,41.73
663.00,41.65
662.00,41.59
661.00,41.52
660.00,41.39
659.00,41.27
658.00,41.17
657.00,41.07
656.00,40.92
655.00,40.77
654.00,40.62
653.00,40.43
652.00,40.18
651.00,39.96
650.00,39.76
