Created as New Dataset,Sample 306 By iruser Date Friday, March 13 2026
cm-1,%T
4200.00,100.96
4199.00,100.96
4198.00,100.96
4197.00,100.95
4196.00,100.95
4195.00,100.95
4194.00,100.96
4193.00,100.96
4192.00,100.96
4191.00,100.96
4190.00,100.96
4189.00,100.96
4188.00,100.96
4187.00,100.95
4186.00,100.95
4185.00,100.95
4184.00,100.95
4183.00,100.94
4182.00,100.94
4181.00,100.94
4180.00,100.94
4179.00,100.95
4178.00,100.95
4177.00,100.95
4176.00,100.96
4175.00,100.95
4174.00,100.95
4173.00,100.94
4172.00,100.93
4171.00,100.93
4170.00,100.93
4169.00,100.93
4168.00,100.93
4167.00,100.92
4166.00,100.91
4165.00,100.91
4164.00,100.90
4163.00,100.91
4162.00,100.91
4161.00,100.92
4160.00,100.92
4159.00,100.92
4158.00,100.91
4157.00,100.91
4156.00,100.90
4155.00,100.90
4154.00,100.91
4153.00,100.91
4152.00,100.91
4151.00,100.91
4150.00,100.90
4149.00,100.89
4148.00,100.89
4147.00,100.88
4146.00,100.88
4145.00,100.88
4144.00,100.88
4143.00,100.88
4142.00,100.88
4141.00,100.87
4140.00,100.87
4139.00,100.87
4138.00,100.87
4137.00,100.87
4136.00,100.86
4135.00,100.86
4134.00,100.86
4133.00,100.86
4132.00,100.86
4131.00,100.86
4130.00,100.87
4129.00,100.87
4128.00,100.86
4127.00,100.86
4126.00,100.85
4125.00,100.85
4124.00,100.85
4123.00,100.84
4122.00,100.84
4121.00,100.83
4120.00,100.82
4119.00,100.82
4118.00,100.82
4117.00,100.82
4116.00,100.81
4115.00,100.81
4114.00,100.80
4113.00,100.80
4112.00,100.80
4111.00,100.79
4110.00,100.79
4109.00,100.79
4108.00,100.79
4107.00,100.79
4106.00,100.79
4105.00,100.79
4104.00,100.79
4103.00,100.79
4102.00,100.79
4101.00,100.78
4100.00,100.78
4099.00,100.77
4098.00,100.76
4097.00,100.76
4096.00,100.76
4095.00,100.76
4094.00,100.76
4093.00,100.76
4092.00,100.76
4091.00,100.76
4090.00,100.76
4089.00,100.76
4088.00,100.75
4087.00,100.75
4086.00,100.75
4085.00,100.74
4084.00,100.73
4083.00,100.73
4082.00,100.73
4081.00,100.73
4080.00,100.73
4079.00,100.73
4078.00,100.73
4077.00,100.72
4076.00,100.72
4075.00,100.71
4074.00,100.70
4073.00,100.69
4072.00,100.68
4071.00,100.68
4070.00,100.68
4069.00,100.68
4068.00,100.68
4067.00,100.68
4066.00,100.67
4065.00,100.66
4064.00,100.65
4063.00,100.64
4062.00,100.64
4061.00,100.65
4060.00,100.65
4059.00,100.66
4058.00,100.65
4057.00,100.65
4056.00,100.64
4055.00,100.63
4054.00,100.62
4053.00,100.62
4052.00,100.62
4051.00,100.62
4050.00,100.62
4049.00,100.62
4048.00,100.62
4047.00,100.62
4046.00,100.62
4045.00,100.62
4044.00,100.61
4043.00,100.61
4042.00,100.61
4041.00,100.60
4040.00,100.60
4039.00,100.60
4038.00,100.59
4037.00,100.59
4036.00,100.59
4035.00,100.59
4034.00,100.59
4033.00,100.58
4032.00,100.57
4031.00,100.56
4030.00,100.55
4029.00,100.55
4028.00,100.55
4027.00,100.56
4026.00,100.56
4025.00,100.56
4024.00,100.55
4023.00,100.55
4022.00,100.54
4021.00,100.54
4020.00,100.55
4019.00,100.55
4018.00,100.55
4017.00,100.54
4016.00,100.54
4015.00,100.53
4014.00,100.53
4013.00,100.54
4012.00,100.54
4011.00,100.54
4010.00,100.54
4009.00,100.54
4008.00,100.55
4007.00,100.55
4006.00,100.55
4005.00,100.54
4004.00,100.54
4003.00,100.54
4002.00,100.53
4001.00,100.53
4000.00,100.53
3999.00,100.54
3998.00,100.54
3997.00,100.55
3996.00,100.55
3995.00,100.55
3994.00,100.55
3993.00,100.54
3992.00,100.54
3991.00,100.54
3990.00,100.54
3989.00,100.54
3988.00,100.54
3987.00,100.55
3986.00,100.55
3985.00,100.56
3984.00,100.56
3983.00,100.56
3982.00,100.56
3981.00,100.56
3980.00,100.55
3979.00,100.55
3978.00,100.55
3977.00,100.55
3976.00,100.56
3975.00,100.56
3974.00,100.57
3973.00,100.57
3972.00,100.58
3971.00,100.58
3970.00,100.57
3969.00,100.57
3968.00,100.56
3967.00,100.56
3966.00,100.56
3965.00,100.57
3964.00,100.57
3963.00,100.58
3962.00,100.58
3961.00,100.58
3960.00,100.58
3959.00,100.58
3958.00,100.58
3957.00,100.58
3956.00,100.58
3955.00,100.58
3954.00,100.58
3953.00,100.58
3952.00,100.59
3951.00,100.59
3950.00,100.60
3949.00,100.60
3948.00,100.61
3947.00,100.61
3946.00,100.60
3945.00,100.61
3944.00,100.61
3943.00,100.62
3942.00,100.62
3941.00,100.62
3940.00,100.61
3939.00,100.61
3938.00,100.61
3937.00,100.60
3936.00,100.60
3935.00,100.60
3934.00,100.61
3933.00,100.61
3932.00,100.62
3931.00,100.62
3930.00,100.63
3929.00,100.62
3928.00,100.62
3927.00,100.62
3926.00,100.63
3925.00,100.65
3924.00,100.65
3923.00,100.66
3922.00,100.66
3921.00,100.65
3920.00,100.65
3919.00,100.65
3918.00,100.65
3917.00,100.65
3916.00,100.66
3915.00,100.66
3914.00,100.65
3913.00,100.65
3912.00,100.65
3911.00,100.65
3910.00,100.65
3909.00,100.66
3908.00,100.66
3907.00,100.67
3906.00,100.67
3905.00,100.68
3904.00,100.69
3903.00,100.69
3902.00,100.68
3901.00,100.68
3900.00,100.68
3899.00,100.69
3898.00,100.69
3897.00,100.69
3896.00,100.70
3895.00,100.70
3894.00,100.69
3893.00,100.69
3892.00,100.68
3891.00,100.69
3890.00,100.68
3889.00,100.67
3888.00,100.66
3887.00,100.67
3886.00,100.69
3885.00,100.70
3884.00,100.70
3883.00,100.70
3882.00,100.70
3881.00,100.71
3880.00,100.72
3879.00,100.72
3878.00,100.71
3877.00,100.69
3876.00,100.69
3875.00,100.69
3874.00,100.70
3873.00,100.70
3872.00,100.69
3871.00,100.69
3870.00,100.71
3869.00,100.71
3868.00,100.70
3867.00,100.69
3866.00,100.69
3865.00,100.70
3864.00,100.71
3863.00,100.71
3862.00,100.71
3861.00,100.71
3860.00,100.71
3859.00,100.71
3858.00,100.72
3857.00,100.72
3856.00,100.71
3855.00,100.70
3854.00,100.70
3853.00,100.71
3852.00,100.70
3851.00,100.69
3850.00,100.69
3849.00,100.70
3848.00,100.70
3847.00,100.70
3846.00,100.71
3845.00,100.71
3844.00,100.72
3843.00,100.72
3842.00,100.72
3841.00,100.71
3840.00,100.71
3839.00,100.71
3838.00,100.71
3837.00,100.72
3836.00,100.71
3835.00,100.71
3834.00,100.71
3833.00,100.70
3832.00,100.70
3831.00,100.70
3830.00,100.70
3829.00,100.70
3828.00,100.70
3827.00,100.71
3826.00,100.72
3825.00,100.72
3824.00,100.71
3823.00,100.69
3822.00,100.69
3821.00,100.69
3820.00,100.69
3819.00,100.67
3818.00,100.66
3817.00,100.66
3816.00,100.68
3815.00,100.68
3814.00,100.68
3813.00,100.68
3812.00,100.69
3811.00,100.70
3810.00,100.69
3809.00,100.68
3808.00,100.68
3807.00,100.69
3806.00,100.70
3805.00,100.69
3804.00,100.68
3803.00,100.68
3802.00,100.69
3801.00,100.70
3800.00,100.70
3799.00,100.69
3798.00,100.68
3797.00,100.69
3796.00,100.69
3795.00,100.69
3794.00,100.68
3793.00,100.69
3792.00,100.69
3791.00,100.68
3790.00,100.68
3789.00,100.69
3788.00,100.69
3787.00,100.69
3786.00,100.69
3785.00,100.70
3784.00,100.70
3783.00,100.69
3782.00,100.68
3781.00,100.67
3780.00,100.67
3779.00,100.68
3778.00,100.68
3777.00,100.67
3776.00,100.68
3775.00,100.68
3774.00,100.68
3773.00,100.67
3772.00,100.66
3771.00,100.66
3770.00,100.67
3769.00,100.67
3768.00,100.66
3767.00,100.66
3766.00,100.66
3765.00,100.67
3764.00,100.68
3763.00,100.67
3762.00,100.67
3761.00,100.66
3760.00,100.66
3759.00,100.66
3758.00,100.66
3757.00,100.67
3756.00,100.67
3755.00,100.66
3754.00,100.65
3753.00,100.64
3752.00,100.63
3751.00,100.62
3750.00,100.63
3749.00,100.64
3748.00,100.64
3747.00,100.62
3746.00,100.61
3745.00,100.62
3744.00,100.63
3743.00,100.63
3742.00,100.62
3741.00,100.62
3740.00,100.63
3739.00,100.63
3738.00,100.61
3737.00,100.61
3736.00,100.62
3735.00,100.62
3734.00,100.61
3733.00,100.60
3732.00,100.60
3731.00,100.60
3730.00,100.59
3729.00,100.59
3728.00,100.59
3727.00,100.60
3726.00,100.60
3725.00,100.60
3724.00,100.60
3723.00,100.60
3722.00,100.59
3721.00,100.58
3720.00,100.57
3719.00,100.56
3718.00,100.56
3717.00,100.55
3716.00,100.55
3715.00,100.53
3714.00,100.52
3713.00,100.51
3712.00,100.50
3711.00,100.49
3710.00,100.48
3709.00,100.47
3708.00,100.46
3707.00,100.45
3706.00,100.45
3705.00,100.45
3704.00,100.44
3703.00,100.43
3702.00,100.43
3701.00,100.42
3700.00,100.40
3699.00,100.38
3698.00,100.35
3697.00,100.34
3696.00,100.33
3695.00,100.32
3694.00,100.31
3693.00,100.30
3692.00,100.29
3691.00,100.27
3690.00,100.25
3689.00,100.23
3688.00,100.21
3687.00,100.19
3686.00,100.16
3685.00,100.15
3684.00,100.14
3683.00,100.13
3682.00,100.11
3681.00,100.10
3680.00,100.08
3679.00,100.06
3678.00,100.02
3677.00,99.97
3676.00,99.95
3675.00,99.93
3674.00,99.91
3673.00,99.88
3672.00,99.85
3671.00,99.82
3670.00,99.80
3669.00,99.77
3668.00,99.73
3667.00,99.70
3666.00,99.67
3665.00,99.63
3664.00,99.59
3663.00,99.55
3662.00,99.51
3661.00,99.47
3660.00,99.43
3659.00,99.38
3658.00,99.33
3657.00,99.28
3656.00,99.24
3655.00,99.20
3654.00,99.16
3653.00,99.11
3652.00,99.07
3651.00,99.01
3650.00,98.95
3649.00,98.89
3648.00,98.83
3647.00,98.77
3646.00,98.71
3645.00,98.65
3644.00,98.59
3643.00,98.53
3642.00,98.46
3641.00,98.40
3640.00,98.33
3639.00,98.27
3638.00,98.20
3637.00,98.13
3636.00,98.06
3635.00,98.00
3634.00,97.93
3633.00,97.87
3632.00,97.79
3631.00,97.70
3630.00,97.61
3629.00,97.53
3628.00,97.45
3627.00,97.36
3626.00,97.27
3625.00,97.19
3624.00,97.12
3623.00,97.04
3622.00,96.96
3621.00,96.88
3620.00,96.79
3619.00,96.70
3618.00,96.60
3617.00,96.49
3616.00,96.38
3615.00,96.28
3614.00,96.19
3613.00,96.09
3612.00,95.98
3611.00,95.87
3610.00,95.75
3609.00,95.64
3608.00,95.52
3607.00,95.42
3606.00,95.31
3605.00,95.19
3604.00,95.08
3603.00,94.95
3602.00,94.84
3601.00,94.72
3600.00,94.61
3599.00,94.49
3598.00,94.37
3597.00,94.24
3596.00,94.10
3595.00,93.96
3594.00,93.83
3593.00,93.70
3592.00,93.57
3591.00,93.44
3590.00,93.29
3589.00,93.15
3588.00,92.99
3587.00,92.84
3586.00,92.69
3585.00,92.54
3584.00,92.39
3583.00,92.24
3582.00,92.09
3581.00,91.95
3580.00,91.80
3579.00,91.65
3578.00,91.49
3577.00,91.33
3576.00,91.16
3575.00,91.00
3574.00,90.84
3573.00,90.69
3572.00,90.53
3571.00,90.38
3570.00,90.22
3569.00,90.05
3568.00,89.87
3567.00,89.68
3566.00,89.49
3565.00,89.30
3564.00,89.11
3563.00,88.93
3562.00,88.75
3561.00,88.57
3560.00,88.40
3559.00,88.22
3558.00,88.03
3557.00,87.85
3556.00,87.67
3555.00,87.49
3554.00,87.30
3553.00,87.11
3552.00,86.92
3551.00,86.73
3550.00,86.54
3549.00,86.35
3548.00,86.16
3547.00,85.97
3546.00,85.77
3545.00,85.57
3544.00,85.38
3543.00,85.18
3542.00,84.99
3541.00,84.80
3540.00,84.60
3539.00,84.40
3538.00,84.20
3537.00,83.99
3536.00,83.79
3535.00,83.59
3534.00,83.39
3533.00,83.20
3532.00,83.00
3531.00,82.80
3530.00,82.60
3529.00,82.40
3528.00,82.18
3527.00,81.97
3526.00,81.76
3525.00,81.56
3524.00,81.35
3523.00,81.14
3522.00,80.93
3521.00,80.72
3520.00,80.52
3519.00,80.31
3518.00,80.10
3517.00,79.89
3516.00,79.68
3515.00,79.46
3514.00,79.25
3513.00,79.04
3512.00,78.83
3511.00,78.62
3510.00,78.42
3509.00,78.21
3508.00,78.01
3507.00,77.80
3506.00,77.60
3505.00,77.38
3504.00,77.17
3503.00,76.95
3502.00,76.74
3501.00,76.54
3500.00,76.33
3499.00,76.12
3498.00,75.91
3497.00,75.71
3496.00,75.50
3495.00,75.29
3494.00,75.09
3493.00,74.88
3492.00,74.67
3491.00,74.47
3490.00,74.26
3489.00,74.06
3488.00,73.85
3487.00,73.64
3486.00,73.44
3485.00,73.24
3484.00,73.04
3483.00,72.84
3482.00,72.64
3481.00,72.43
3480.00,72.22
3479.00,72.02
3478.00,71.82
3477.00,71.62
3476.00,71.42
3475.00,71.22
3474.00,71.02
3473.00,70.82
3472.00,70.62
3471.00,70.42
3470.00,70.22
3469.00,70.02
3468.00,69.82
3467.00,69.63
3466.00,69.44
3465.00,69.26
3464.00,69.07
3463.00,68.88
3462.00,68.69
3461.00,68.50
3460.00,68.31
3459.00,68.12
3458.00,67.94
3457.00,67.75
3456.00,67.56
3455.00,67.38
3454.00,67.19
3453.00,67.01
3452.00,66.83
3451.00,66.64
3450.00,66.46
3449.00,66.28
3448.00,66.10
3447.00,65.92
3446.00,65.74
3445.00,65.55
3444.00,65.37
3443.00,65.20
3442.00,65.02
3441.00,64.85
3440.00,64.67
3439.00,64.50
3438.00,64.32
3437.00,64.14
3436.00,63.97
3435.00,63.81
3434.00,63.64
3433.00,63.47
3432.00,63.30
3431.00,63.13
3430.00,62.96
3429.00,62.80
3428.00,62.64
3427.00,62.49
3426.00,62.33
3425.00,62.17
3424.00,62.01
3423.00,61.85
3422.00,61.70
3421.00,61.54
3420.00,61.38
3419.00,61.22
3418.00,61.06
3417.00,60.90
3416.00,60.74
3415.00,60.59
3414.00,60.44
3413.00,60.29
3412.00,60.14
3411.00,60.00
3410.00,59.85
3409.00,59.72
3408.00,59.58
3407.00,59.44
3406.00,59.30
3405.00,59.15
3404.00,59.00
3403.00,58.86
3402.00,58.71
3401.00,58.57
3400.00,58.44
3399.00,58.31
3398.00,58.18
3397.00,58.05
3396.00,57.92
3395.00,57.79
3394.00,57.66
3393.00,57.53
3392.00,57.40
3391.00,57.28
3390.00,57.17
3389.00,57.05
3388.00,56.94
3387.00,56.82
3386.00,56.70
3385.00,56.58
3384.00,56.46
3383.00,56.34
3382.00,56.23
3381.00,56.12
3380.00,56.01
3379.00,55.90
3378.00,55.79
3377.00,55.68
3376.00,55.57
3375.00,55.46
3374.00,55.36
3373.00,55.26
3372.00,55.15
3371.00,55.04
3370.00,54.94
3369.00,54.84
3368.00,54.75
3367.00,54.66
3366.00,54.58
3365.00,54.49
3364.00,54.40
3363.00,54.31
3362.00,54.22
3361.00,54.13
3360.00,54.05
3359.00,53.97
3358.00,53.89
3357.00,53.81
3356.00,53.73
3355.00,53.64
3354.00,53.56
3353.00,53.48
3352.00,53.40
3351.00,53.32
3350.00,53.25
3349.00,53.18
3348.00,53.12
3347.00,53.05
3346.00,52.98
3345.00,52.91
3344.00,52.85
3343.00,52.78
3342.00,52.72
3341.00,52.66
3340.00,52.60
3339.00,52.53
3338.00,52.48
3337.00,52.42
3336.00,52.37
3335.00,52.32
3334.00,52.27
3333.00,52.23
3332.00,52.18
3331.00,52.13
3330.00,52.08
3329.00,52.03
3328.00,51.98
3327.00,51.93
3326.00,51.88
3325.00,51.84
3324.00,51.79
3323.00,51.75
3322.00,51.71
3321.00,51.68
3320.00,51.64
3319.00,51.61
3318.00,51.58
3317.00,51.54
3316.00,51.51
3315.00,51.48
3314.00,51.44
3313.00,51.41
3312.00,51.38
3311.00,51.34
3310.00,51.31
3309.00,51.28
3308.00,51.25
3307.00,51.22
3306.00,51.20
3305.00,51.18
3304.00,51.16
3303.00,51.15
3302.00,51.14
3301.00,51.12
3300.00,51.10
3299.00,51.08
3298.00,51.06
3297.00,51.04
3296.00,51.02
3295.00,51.01
3294.00,51.00
3293.00,50.99
3292.00,50.98
3291.00,50.98
3290.00,50.98
3289.00,50.97
3288.00,50.97
3287.00,50.96
3286.00,50.96
3285.00,50.96
3284.00,50.96
3283.00,50.95
3282.00,50.95
3281.00,50.95
3280.00,50.96
3279.00,50.96
3278.00,50.97
3277.00,50.97
3276.00,50.97
3275.00,50.98
3274.00,50.98
3273.00,50.99
3272.00,51.00
3271.00,51.02
3270.00,51.03
3269.00,51.05
3268.00,51.08
3267.00,51.10
3266.00,51.12
3265.00,51.15
3264.00,51.17
3263.00,51.20
3262.00,51.22
3261.00,51.25
3260.00,51.27
3259.00,51.30
3258.00,51.33
3257.00,51.36
3256.00,51.39
3255.00,51.43
3254.00,51.47
3253.00,51.51
3252.00,51.54
3251.00,51.58
3250.00,51.61
3249.00,51.65
3248.00,51.70
3247.00,51.75
3246.00,51.80
3245.00,51.86
3244.00,51.91
3243.00,51.96
3242.00,52.01
3241.00,52.07
3240.00,52.13
3239.00,52.18
3238.00,52.24
3237.00,52.30
3236.00,52.36
3235.00,52.42
3234.00,52.48
3233.00,52.56
3232.00,52.63
3231.00,52.71
3230.00,52.78
3229.00,52.85
3228.00,52.93
3227.00,53.01
3226.00,53.09
3225.00,53.17
3224.00,53.25
3223.00,53.34
3222.00,53.42
3221.00,53.50
3220.00,53.59
3219.00,53.67
3218.00,53.77
3217.00,53.86
3216.00,53.95
3215.00,54.05
3214.00,54.15
3213.00,54.26
3212.00,54.36
3211.00,54.47
3210.00,54.57
3209.00,54.68
3208.00,54.79
3207.00,54.90
3206.00,55.01
3205.00,55.12
3204.00,55.23
3203.00,55.35
3202.00,55.46
3201.00,55.58
3200.00,55.69
3199.00,55.82
3198.00,55.94
3197.00,56.07
3196.00,56.20
3195.00,56.33
3194.00,56.45
3193.00,56.58
3192.00,56.70
3191.00,56.83
3190.00,56.97
3189.00,57.10
3188.00,57.24
3187.00,57.38
3186.00,57.52
3185.00,57.66
3184.00,57.80
3183.00,57.95
3182.00,58.09
3181.00,58.24
3180.00,58.39
3179.00,58.53
3178.00,58.68
3177.00,58.83
3176.00,58.99
3175.00,59.14
3174.00,59.29
3173.00,59.45
3172.00,59.61
3171.00,59.76
3170.00,59.92
3169.00,60.08
3168.00,60.24
3167.00,60.40
3166.00,60.57
3165.00,60.74
3164.00,60.90
3163.00,61.07
3162.00,61.24
3161.00,61.41
3160.00,61.58
3159.00,61.75
3158.00,61.92
3157.00,62.09
3156.00,62.26
3155.00,62.43
3154.00,62.60
3153.00,62.77
3152.00,62.95
3151.00,63.13
3150.00,63.32
3149.00,63.50
3148.00,63.68
3147.00,63.86
3146.00,64.04
3145.00,64.23
3144.00,64.41
3143.00,64.59
3142.00,64.77
3141.00,64.94
3140.00,65.12
3139.00,65.31
3138.00,65.50
3137.00,65.69
3136.00,65.88
3135.00,66.07
3134.00,66.26
3133.00,66.44
3132.00,66.63
3131.00,66.82
3130.00,67.01
3129.00,67.20
3128.00,67.39
3127.00,67.58
3126.00,67.77
3125.00,67.95
3124.00,68.14
3123.00,68.32
3122.00,68.51
3121.00,68.70
3120.00,68.89
3119.00,69.08
3118.00,69.27
3117.00,69.46
3116.00,69.66
3115.00,69.85
3114.00,70.04
3113.00,70.23
3112.00,70.42
3111.00,70.61
3110.00,70.80
3109.00,70.99
3108.00,71.18
3107.00,71.37
3106.00,71.57
3105.00,71.76
3104.00,71.95
3103.00,72.14
3102.00,72.33
3101.00,72.51
3100.00,72.70
3099.00,72.88
3098.00,73.07
3097.00,73.26
3096.00,73.45
3095.00,73.64
3094.00,73.83
3093.00,74.01
3092.00,74.19
3091.00,74.37
3090.00,74.55
3089.00,74.74
3088.00,74.93
3087.00,75.12
3086.00,75.30
3085.00,75.48
3084.00,75.67
3083.00,75.85
3082.00,76.03
3081.00,76.21
3080.00,76.38
3079.00,76.56
3078.00,76.73
3077.00,76.91
3076.00,77.09
3075.00,77.27
3074.00,77.45
3073.00,77.63
3072.00,77.80
3071.00,77.98
3070.00,78.15
3069.00,78.32
3068.00,78.49
3067.00,78.66
3066.00,78.83
3065.00,79.00
3064.00,79.17
3063.00,79.33
3062.00,79.50
3061.00,79.67
3060.00,79.83
3059.00,80.00
3058.00,80.16
3057.00,80.32
3056.00,80.48
3055.00,80.64
3054.00,80.80
3053.00,80.96
3052.00,81.11
3051.00,81.27
3050.00,81.43
3049.00,81.58
3048.00,81.74
3047.00,81.89
3046.00,82.04
3045.00,82.19
3044.00,82.33
3043.00,82.48
3042.00,82.62
3041.00,82.76
3040.00,82.90
3039.00,83.05
3038.00,83.19
3037.00,83.33
3036.00,83.46
3035.00,83.60
3034.00,83.73
3033.00,83.86
3032.00,84.00
3031.00,84.12
3030.00,84.25
3029.00,84.37
3028.00,84.49
3027.00,84.61
3026.00,84.73
3025.00,84.84
3024.00,84.96
3023.00,85.07
3022.00,85.18
3021.00,85.28
3020.00,85.39
3019.00,85.49
3018.00,85.58
3017.00,85.68
3016.00,85.77
3015.00,85.85
3014.00,85.94
3013.00,86.02
3012.00,86.09
3011.00,86.16
3010.00,86.23
3009.00,86.29
3008.00,86.35
3007.00,86.41
3006.00,86.46
3005.00,86.51
3004.00,86.55
3003.00,86.58
3002.00,86.61
3001.00,86.63
3000.00,86.65
2999.00,86.66
2998.00,86.67
2997.00,86.66
2996.00,86.66
2995.00,86.65
2994.00,86.63
2993.00,86.60
2992.00,86.56
2991.00,86.50
2990.00,86.45
2989.00,86.39
2988.00,86.33
2987.00,86.27
2986.00,86.21
2985.00,86.15
2984.00,86.08
2983.00,86.01
2982.00,85.93
2981.00,85.84
2980.00,85.75
2979.00,85.66
2978.00,85.58
2977.00,85.49
2976.00,85.40
2975.00,85.30
2974.00,85.19
2973.00,85.09
2972.00,84.98
2971.00,84.87
2970.00,84.77
2969.00,84.67
2968.00,84.57
2967.00,84.46
2966.00,84.33
2965.00,84.20
2964.00,84.06
2963.00,83.91
2962.00,83.74
2961.00,83.57
2960.00,83.39
2959.00,83.20
2958.00,83.00
2957.00,82.80
2956.00,82.60
2955.00,82.38
2954.00,82.16
2953.00,81.94
2952.00,81.71
2951.00,81.48
2950.00,81.26
2949.00,81.04
2948.00,80.81
2947.00,80.59
2946.00,80.38
2945.00,80.17
2944.00,79.97
2943.00,79.77
2942.00,79.59
2941.00,79.41
2940.00,79.25
2939.00,79.10
2938.00,78.97
2937.00,78.85
2936.00,78.76
2935.00,78.68
2934.00,78.61
2933.00,78.56
2932.00,78.52
2931.00,78.50
2930.00,78.50
2929.00,78.51
2928.00,78.53
2927.00,78.57
2926.00,78.62
2925.00,78.68
2924.00,78.75
2923.00,78.83
2922.00,78.92
2921.00,79.01
2920.00,79.10
2919.00,79.19
2918.00,79.28
2917.00,79.38
2916.00,79.47
2915.00,79.56
2914.00,79.65
2913.00,79.73
2912.00,79.81
2911.00,79.88
2910.00,79.95
2909.00,80.02
2908.00,80.08
2907.00,80.12
2906.00,80.16
2905.00,80.19
2904.00,80.22
2903.00,80.24
2902.00,80.26
2901.00,80.28
2900.00,80.30
2899.00,80.32
2898.00,80.33
2897.00,80.34
2896.00,80.36
2895.00,80.37
2894.00,80.37
2893.00,80.38
2892.00,80.38
2891.00,80.39
2890.00,80.40
2889.00,80.42
2888.00,80.45
2887.00,80.48
2886.00,80.52
2885.00,80.57
2884.00,80.64
2883.00,80.72
2882.00,80.80
2881.00,80.90
2880.00,81.01
2879.00,81.13
2878.00,81.27
2877.00,81.41
2876.00,81.57
2875.00,81.72
2874.00,81.89
2873.00,82.05
2872.00,82.22
2871.00,82.40
2870.00,82.57
2869.00,82.75
2868.00,82.93
2867.00,83.11
2866.00,83.28
2865.00,83.45
2864.00,83.62
2863.00,83.77
2862.00,83.93
2861.00,84.08
2860.00,84.23
2859.00,84.37
2858.00,84.52
2857.00,84.66
2856.00,84.79
2855.00,84.93
2854.00,85.06
2853.00,85.18
2852.00,85.32
2851.00,85.45
2850.00,85.58
2849.00,85.71
2848.00,85.85
2847.00,85.97
2846.00,86.09
2845.00,86.21
2844.00,86.33
2843.00,86.45
2842.00,86.58
2841.00,86.69
2840.00,86.81
2839.00,86.92
2838.00,87.04
2837.00,87.15
2836.00,87.26
2835.00,87.37
2834.00,87.48
2833.00,87.59
2832.00,87.69
2831.00,87.78
2830.00,87.88
2829.00,87.97
2828.00,88.06
2827.00,88.15
2826.00,88.23
2825.00,88.32
2824.00,88.41
2823.00,88.49
2822.00,88.58
2821.00,88.67
2820.00,88.75
2819.00,88.83
2818.00,88.91
2817.00,88.99
2816.00,89.07
2815.00,89.15
2814.00,89.22
2813.00,89.29
2812.00,89.37
2811.00,89.44
2810.00,89.51
2809.00,89.58
2808.00,89.65
2807.00,89.72
2806.00,89.78
2805.00,89.85
2804.00,89.91
2803.00,89.98
2802.00,90.04
2801.00,90.11
2800.00,90.17
2799.00,90.23
2798.00,90.29
2797.00,90.35
2796.00,90.40
2795.00,90.46
2794.00,90.51
2793.00,90.57
2792.00,90.63
2791.00,90.68
2790.00,90.74
2789.00,90.78
2788.00,90.83
2787.00,90.88
2786.00,90.93
2785.00,90.98
2784.00,91.03
2783.00,91.07
2782.00,91.12
2781.00,91.16
2780.00,91.21
2779.00,91.25
2778.00,91.29
2777.00,91.33
2776.00,91.37
2775.00,91.41
2774.00,91.45
2773.00,91.49
2772.00,91.54
2771.00,91.58
2770.00,91.61
2769.00,91.64
2768.00,91.68
2767.00,91.71
2766.00,91.74
2765.00,91.78
2764.00,91.81
2763.00,91.85
2762.00,91.88
2761.00,91.92
2760.00,91.95
2759.00,91.97
2758.00,91.99
2757.00,92.01
2756.00,92.04
2755.00,92.06
2754.00,92.09
2753.00,92.12
2752.00,92.15
2751.00,92.18
2750.00,92.20
2749.00,92.23
2748.00,92.25
2747.00,92.27
2746.00,92.28
2745.00,92.30
2744.00,92.32
2743.00,92.35
2742.00,92.37
2741.00,92.39
2740.00,92.41
2739.00,92.43
2738.00,92.44
2737.00,92.46
2736.00,92.48
2735.00,92.50
2734.00,92.51
2733.00,92.53
2732.00,92.55
2731.00,92.57
2730.00,92.59
2729.00,92.61
2728.00,92.63
2727.00,92.65
2726.00,92.67
2725.00,92.68
2724.00,92.70
2723.00,92.72
2722.00,92.73
2721.00,92.75
2720.00,92.77
2719.00,92.80
2718.00,92.82
2717.00,92.84
2716.00,92.86
2715.00,92.88
2714.00,92.90
2713.00,92.93
2712.00,92.95
2711.00,92.97
2710.00,93.00
2709.00,93.01
2708.00,93.03
2707.00,93.05
2706.00,93.07
2705.00,93.10
2704.00,93.13
2703.00,93.15
2702.00,93.18
2701.00,93.20
2700.00,93.23
2699.00,93.25
2698.00,93.27
2697.00,93.29
2696.00,93.32
2695.00,93.34
2694.00,93.37
2693.00,93.40
2692.00,93.43
2691.00,93.46
2690.00,93.48
2689.00,93.50
2688.00,93.53
2687.00,93.55
2686.00,93.58
2685.00,93.61
2684.00,93.64
2683.00,93.67
2682.00,93.70
2681.00,93.73
2680.00,93.76
2679.00,93.79
2678.00,93.82
2677.00,93.85
2676.00,93.88
2675.00,93.91
2674.00,93.94
2673.00,93.97
2672.00,94.00
2671.00,94.04
2670.00,94.07
2669.00,94.10
2668.00,94.13
2667.00,94.17
2666.00,94.20
2665.00,94.23
2664.00,94.27
2663.00,94.30
2662.00,94.34
2661.00,94.37
2660.00,94.40
2659.00,94.42
2658.00,94.45
2657.00,94.49
2656.00,94.52
2655.00,94.56
2654.00,94.60
2653.00,94.63
2652.00,94.67
2651.00,94.70
2650.00,94.73
2649.00,94.75
2648.00,94.78
2647.00,94.81
2646.00,94.85
2645.00,94.89
2644.00,94.93
2643.00,94.96
2642.00,94.99
2641.00,95.03
2640.00,95.06
2639.00,95.09
2638.00,95.12
2637.00,95.16
2636.00,95.19
2635.00,95.22
2634.00,95.25
2633.00,95.28
2632.00,95.31
2631.00,95.34
2630.00,95.37
2629.00,95.40
2628.00,95.43
2627.00,95.46
2626.00,95.49
2625.00,95.52
2624.00,95.55
2623.00,95.57
2622.00,95.60
2621.00,95.62
2620.00,95.65
2619.00,95.68
2618.00,95.71
2617.00,95.74
2616.00,95.77
2615.00,95.79
2614.00,95.82
2613.00,95.84
2612.00,95.86
2611.00,95.89
2610.00,95.90
2609.00,95.92
2608.00,95.95
2607.00,95.97
2606.00,96.00
2605.00,96.02
2604.00,96.04
2603.00,96.06
2602.00,96.08
2601.00,96.10
2600.00,96.12
2599.00,96.14
2598.00,96.15
2597.00,96.17
2596.00,96.18
2595.00,96.20
2594.00,96.22
2593.00,96.24
2592.00,96.26
2591.00,96.28
2590.00,96.30
2589.00,96.32
2588.00,96.33
2587.00,96.34
2586.00,96.36
2585.00,96.38
2584.00,96.40
2583.00,96.42
2582.00,96.44
2581.00,96.45
2580.00,96.46
2579.00,96.48
2578.00,96.49
2577.00,96.50
2576.00,96.52
2575.00,96.53
2574.00,96.55
2573.00,96.56
2572.00,96.57
2571.00,96.59
2570.00,96.60
2569.00,96.61
2568.00,96.63
2567.00,96.64
2566.00,96.65
2565.00,96.66
2564.00,96.67
2563.00,96.68
2562.00,96.70
2561.00,96.71
2560.00,96.72
2559.00,96.73
2558.00,96.74
2557.00,96.75
2556.00,96.76
2555.00,96.77
2554.00,96.78
2553.00,96.79
2552.00,96.80
2551.00,96.81
2550.00,96.82
2549.00,96.83
2548.00,96.84
2547.00,96.86
2546.00,96.87
2545.00,96.87
2544.00,96.88
2543.00,96.89
2542.00,96.90
2541.00,96.92
2540.00,96.93
2539.00,96.94
2538.00,96.94
2537.00,96.95
2536.00,96.95
2535.00,96.96
2534.00,96.97
2533.00,96.98
2532.00,96.99
2531.00,97.00
2530.00,97.01
2529.00,97.03
2528.00,97.04
2527.00,97.06
2526.00,97.07
2525.00,97.08
2524.00,97.09
2523.00,97.10
2522.00,97.11
2521.00,97.12
2520.00,97.13
2519.00,97.14
2518.00,97.15
2517.00,97.15
2516.00,97.16
2515.00,97.17
2514.00,97.18
2513.00,97.20
2512.00,97.21
2511.00,97.22
2510.00,97.23
2509.00,97.23
2508.00,97.24
2507.00,97.26
2506.00,97.27
2505.00,97.28
2504.00,97.29
2503.00,97.30
2502.00,97.31
2501.00,97.32
2500.00,97.32
2499.00,97.33
2498.00,97.33
2497.00,97.33
2496.00,97.34
2495.00,97.36
2494.00,97.38
2493.00,97.39
2492.00,97.41
2491.00,97.42
2490.00,97.44
2489.00,97.45
2488.00,97.46
2487.00,97.47
2486.00,97.48
2485.00,97.50
2484.00,97.51
2483.00,97.53
2482.00,97.55
2481.00,97.58
2480.00,97.59
2479.00,97.61
2478.00,97.63
2477.00,97.64
2476.00,97.65
2475.00,97.66
2474.00,97.67
2473.00,97.68
2472.00,97.70
2471.00,97.72
2470.00,97.74
2469.00,97.76
2468.00,97.78
2467.00,97.79
2466.00,97.81
2465.00,97.83
2464.00,97.84
2463.00,97.86
2462.00,97.88
2461.00,97.89
2460.00,97.91
2459.00,97.93
2458.00,97.95
2457.00,97.96
2456.00,97.97
2455.00,97.98
2454.00,98.00
2453.00,98.02
2452.00,98.03
2451.00,98.05
2450.00,98.07
2449.00,98.09
2448.00,98.11
2447.00,98.13
2446.00,98.15
2445.00,98.17
2444.00,98.18
2443.00,98.19
2442.00,98.20
2441.00,98.22
2440.00,98.24
2439.00,98.26
2438.00,98.28
2437.00,98.30
2436.00,98.31
2435.00,98.33
2434.00,98.34
2433.00,98.36
2432.00,98.37
2431.00,98.38
2430.00,98.40
2429.00,98.41
2428.00,98.42
2427.00,98.43
2426.00,98.44
2425.00,98.45
2424.00,98.47
2423.00,98.48
2422.00,98.50
2421.00,98.52
2420.00,98.53
2419.00,98.53
2418.00,98.54
2417.00,98.56
2416.00,98.57
2415.00,98.58
2414.00,98.60
2413.00,98.61
2412.00,98.63
2411.00,98.64
2410.00,98.66
2409.00,98.67
2408.00,98.68
2407.00,98.68
2406.00,98.69
2405.00,98.70
2404.00,98.71
2403.00,98.72
2402.00,98.73
2401.00,98.74
2400.00,98.75
2399.00,98.75
2398.00,98.76
2397.00,98.76
2396.00,98.77
2395.00,98.77
2394.00,98.78
2393.00,98.79
2392.00,98.80
2391.00,98.81
2390.00,98.82
2389.00,98.83
2388.00,98.83
2387.00,98.83
2386.00,98.83
2385.00,98.84
2384.00,98.84
2383.00,98.86
2382.00,98.87
2381.00,98.89
2380.00,98.91
2379.00,98.93
2378.00,98.94
2377.00,98.96
2376.00,98.97
2375.00,98.98
2374.00,98.98
2373.00,98.97
2372.00,98.96
2371.00,98.95
2370.00,98.94
2369.00,98.94
2368.00,98.93
2367.00,98.93
2366.00,98.93
2365.00,98.93
2364.00,98.95
2363.00,98.97
2362.00,99.00
2361.00,99.00
2360.00,99.00
2359.00,99.01
2358.00,99.03
2357.00,99.05
2356.00,99.05
2355.00,99.04
2354.00,99.03
2353.00,99.03
2352.00,99.04
2351.00,99.04
2350.00,99.04
2349.00,99.05
2348.00,99.05
2347.00,99.06
2346.00,99.07
2345.00,99.06
2344.00,99.04
2343.00,99.04
2342.00,99.05
2341.00,99.07
2340.00,99.09
2339.00,99.11
2338.00,99.13
2337.00,99.14
2336.00,99.14
2335.00,99.13
2334.00,99.12
2333.00,99.11
2332.00,99.10
2331.00,99.10
2330.00,99.10
2329.00,99.11
2328.00,99.11
2327.00,99.10
2326.00,99.10
2325.00,99.09
2324.00,99.10
2323.00,99.10
2322.00,99.10
2321.00,99.10
2320.00,99.10
2319.00,99.10
2318.00,99.10
2317.00,99.10
2316.00,99.10
2315.00,99.10
2314.00,99.10
2313.00,99.09
2312.00,99.09
2311.00,99.09
2310.00,99.08
2309.00,99.08
2308.00,99.08
2307.00,99.08
2306.00,99.09
2305.00,99.09
2304.00,99.09
2303.00,99.08
2302.00,99.07
2301.00,99.07
2300.00,99.07
2299.00,99.08
2298.00,99.08
2297.00,99.08
2296.00,99.07
2295.00,99.07
2294.00,99.07
2293.00,99.08
2292.00,99.08
2291.00,99.08
2290.00,99.08
2289.00,99.08
2288.00,99.08
2287.00,99.08
2286.00,99.08
2285.00,99.08
2284.00,99.08
2283.00,99.08
2282.00,99.07
2281.00,99.06
2280.00,99.06
2279.00,99.06
2278.00,99.06
2277.00,99.06
2276.00,99.06
2275.00,99.06
2274.00,99.06
2273.00,99.06
2272.00,99.05
2271.00,99.05
2270.00,99.05
2269.00,99.06
2268.00,99.06
2267.00,99.07
2266.00,99.08
2265.00,99.08
2264.00,99.08
2263.00,99.07
2262.00,99.07
2261.00,99.06
2260.00,99.05
2259.00,99.04
2258.00,99.02
2257.00,99.01
2256.00,99.00
2255.00,99.00
2254.00,99.01
2253.00,99.01
2252.00,99.02
2251.00,99.02
2250.00,99.02
2249.00,99.02
2248.00,99.02
2247.00,99.02
2246.00,99.03
2245.00,99.02
2244.00,99.01
2243.00,99.01
2242.00,99.01
2241.00,99.00
2240.00,99.00
2239.00,98.99
2238.00,98.99
2237.00,98.98
2236.00,98.98
2235.00,98.97
2234.00,98.97
2233.00,98.97
2232.00,98.99
2231.00,99.00
2230.00,99.01
2229.00,99.00
2228.00,98.98
2227.00,98.97
2226.00,98.96
2225.00,98.95
2224.00,98.93
2223.00,98.93
2222.00,98.93
2221.00,98.94
2220.00,98.93
2219.00,98.93
2218.00,98.92
2217.00,98.92
2216.00,98.92
2215.00,98.93
2214.00,98.93
2213.00,98.91
2212.00,98.89
2211.00,98.88
2210.00,98.90
2209.00,98.91
2208.00,98.91
2207.00,98.91
2206.00,98.89
2205.00,98.88
2204.00,98.86
2203.00,98.86
2202.00,98.85
2201.00,98.84
2200.00,98.83
2199.00,98.83
2198.00,98.82
2197.00,98.82
2196.00,98.82
2195.00,98.82
2194.00,98.82
2193.00,98.80
2192.00,98.79
2191.00,98.78
2190.00,98.78
2189.00,98.77
2188.00,98.77
2187.00,98.77
2186.00,98.78
2185.00,98.77
2184.00,98.76
2183.00,98.75
2182.00,98.76
2181.00,98.75
2180.00,98.74
2179.00,98.74
2178.00,98.73
2177.00,98.73
2176.00,98.72
2175.00,98.72
2174.00,98.72
2173.00,98.71
2172.00,98.70
2171.00,98.69
2170.00,98.68
2169.00,98.67
2168.00,98.66
2167.00,98.67
2166.00,98.69
2165.00,98.70
2164.00,98.70
2163.00,98.70
2162.00,98.71
2161.00,98.71
2160.00,98.70
2159.00,98.71
2158.00,98.71
2157.00,98.71
2156.00,98.70
2155.00,98.70
2154.00,98.71
2153.00,98.71
2152.00,98.70
2151.00,98.69
2150.00,98.67
2149.00,98.65
2148.00,98.64
2147.00,98.63
2146.00,98.62
2145.00,98.61
2144.00,98.60
2143.00,98.60
2142.00,98.61
2141.00,98.61
2140.00,98.60
2139.00,98.59
2138.00,98.57
2137.00,98.56
2136.00,98.55
2135.00,98.57
2134.00,98.58
2133.00,98.59
2132.00,98.58
2131.00,98.56
2130.00,98.55
2129.00,98.55
2128.00,98.55
2127.00,98.56
2126.00,98.57
2125.00,98.57
2124.00,98.57
2123.00,98.57
2122.00,98.56
2121.00,98.56
2120.00,98.55
2119.00,98.56
2118.00,98.57
2117.00,98.57
2116.00,98.57
2115.00,98.57
2114.00,98.57
2113.00,98.56
2112.00,98.56
2111.00,98.56
2110.00,98.56
2109.00,98.56
2108.00,98.56
2107.00,98.57
2106.00,98.58
2105.00,98.60
2104.00,98.60
2103.00,98.60
2102.00,98.61
2101.00,98.62
2100.00,98.63
2099.00,98.64
2098.00,98.65
2097.00,98.64
2096.00,98.63
2095.00,98.63
2094.00,98.64
2093.00,98.65
2092.00,98.66
2091.00,98.66
2090.00,98.65
2089.00,98.65
2088.00,98.66
2087.00,98.68
2086.00,98.69
2085.00,98.69
2084.00,98.68
2083.00,98.69
2082.00,98.70
2081.00,98.71
2080.00,98.71
2079.00,98.71
2078.00,98.71
2077.00,98.72
2076.00,98.73
2075.00,98.74
2074.00,98.76
2073.00,98.77
2072.00,98.77
2071.00,98.77
2070.00,98.76
2069.00,98.76
2068.00,98.75
2067.00,98.76
2066.00,98.79
2065.00,98.80
2064.00,98.81
2063.00,98.81
2062.00,98.80
2061.00,98.79
2060.00,98.78
2059.00,98.78
2058.00,98.79
2057.00,98.81
2056.00,98.83
2055.00,98.84
2054.00,98.85
2053.00,98.86
2052.00,98.87
2051.00,98.88
2050.00,98.89
2049.00,98.89
2048.00,98.89
2047.00,98.90
2046.00,98.92
2045.00,98.94
2044.00,98.95
2043.00,98.96
2042.00,98.98
2041.00,98.99
2040.00,99.00
2039.00,99.00
2038.00,99.01
2037.00,99.02
2036.00,99.03
2035.00,99.05
2034.00,99.06
2033.00,99.05
2032.00,99.04
2031.00,99.04
2030.00,99.05
2029.00,99.05
2028.00,99.04
2027.00,99.04
2026.00,99.06
2025.00,99.08
2024.00,99.09
2023.00,99.10
2022.00,99.10
2021.00,99.09
2020.00,99.07
2019.00,99.07
2018.00,99.08
2017.00,99.09
2016.00,99.09
2015.00,99.10
2014.00,99.13
2013.00,99.15
2012.00,99.16
2011.00,99.16
2010.00,99.17
2009.00,99.16
2008.00,99.14
2007.00,99.14
2006.00,99.15
2005.00,99.16
2004.00,99.17
2003.00,99.19
2002.00,99.20
2001.00,99.19
2000.00,99.18
1999.00,99.17
1998.00,99.18
1997.00,99.19
1996.00,99.20
1995.00,99.22
1994.00,99.24
1993.00,99.25
1992.00,99.26
1991.00,99.27
1990.00,99.28
1989.00,99.27
1988.00,99.26
1987.00,99.25
1986.00,99.24
1985.00,99.23
1984.00,99.22
1983.00,99.23
1982.00,99.25
1981.00,99.24
1980.00,99.23
1979.00,99.24
1978.00,99.27
1977.00,99.28
1976.00,99.28
1975.00,99.26
1974.00,99.24
1973.00,99.22
1972.00,99.22
1971.00,99.24
1970.00,99.26
1969.00,99.27
1968.00,99.26
1967.00,99.27
1966.00,99.28
1965.00,99.29
1964.00,99.30
1963.00,99.30
1962.00,99.28
1961.00,99.25
1960.00,99.21
1959.00,99.20
1958.00,99.20
1957.00,99.19
1956.00,99.19
1955.00,99.21
1954.00,99.24
1953.00,99.26
1952.00,99.26
1951.00,99.27
1950.00,99.27
1949.00,99.26
1948.00,99.25
1947.00,99.23
1946.00,99.22
1945.00,99.21
1944.00,99.20
1943.00,99.20
1942.00,99.21
1941.00,99.22
1940.00,99.22
1939.00,99.23
1938.00,99.24
1937.00,99.23
1936.00,99.23
1935.00,99.24
1934.00,99.26
1933.00,99.27
1932.00,99.26
1931.00,99.25
1930.00,99.24
1929.00,99.24
1928.00,99.23
1927.00,99.24
1926.00,99.23
1925.00,99.22
1924.00,99.22
1923.00,99.22
1922.00,99.23
1921.00,99.23
1920.00,99.22
1919.00,99.21
1918.00,99.21
1917.00,99.22
1916.00,99.22
1915.00,99.23
1914.00,99.24
1913.00,99.24
1912.00,99.22
1911.00,99.20
1910.00,99.19
1909.00,99.19
1908.00,99.20
1907.00,99.21
1906.00,99.22
1905.00,99.22
1904.00,99.21
1903.00,99.21
1902.00,99.21
1901.00,99.21
1900.00,99.20
1899.00,99.20
1898.00,99.20
1897.00,99.20
1896.00,99.20
1895.00,99.21
1894.00,99.21
1893.00,99.20
1892.00,99.18
1891.00,99.18
1890.00,99.19
1889.00,99.20
1888.00,99.20
1887.00,99.20
1886.00,99.20
1885.00,99.19
1884.00,99.18
1883.00,99.17
1882.00,99.17
1881.00,99.17
1880.00,99.17
1879.00,99.17
1878.00,99.17
1877.00,99.17
1876.00,99.17
1875.00,99.17
1874.00,99.16
1873.00,99.14
1872.00,99.12
1871.00,99.11
1870.00,99.11
1869.00,99.13
1868.00,99.15
1867.00,99.17
1866.00,99.17
1865.00,99.16
1864.00,99.15
1863.00,99.15
1862.00,99.15
1861.00,99.14
1860.00,99.14
1859.00,99.13
1858.00,99.13
1857.00,99.14
1856.00,99.14
1855.00,99.14
1854.00,99.14
1853.00,99.14
1852.00,99.13
1851.00,99.12
1850.00,99.11
1849.00,99.10
1848.00,99.08
1847.00,99.07
1846.00,99.06
1845.00,99.07
1844.00,99.09
1843.00,99.10
1842.00,99.12
1841.00,99.13
1840.00,99.12
1839.00,99.12
1838.00,99.12
1837.00,99.11
1836.00,99.10
1835.00,99.10
1834.00,99.09
1833.00,99.07
1832.00,99.05
1831.00,99.05
1830.00,99.06
1829.00,99.07
1828.00,99.06
1827.00,99.06
1826.00,99.07
1825.00,99.07
1824.00,99.07
1823.00,99.06
1822.00,99.06
1821.00,99.06
1820.00,99.05
1819.00,99.05
1818.00,99.05
1817.00,99.04
1816.00,99.02
1815.00,99.01
1814.00,99.01
1813.00,98.99
1812.00,98.98
1811.00,98.97
1810.00,98.97
1809.00,98.96
1808.00,98.95
1807.00,98.94
1806.00,98.93
1805.00,98.91
1804.00,98.88
1803.00,98.86
1802.00,98.84
1801.00,98.84
1800.00,98.83
1799.00,98.83
1798.00,98.82
1797.00,98.80
1796.00,98.77
1795.00,98.74
1794.00,98.72
1793.00,98.71
1792.00,98.71
1791.00,98.71
1790.00,98.71
1789.00,98.70
1788.00,98.68
1787.00,98.66
1786.00,98.65
1785.00,98.63
1784.00,98.61
1783.00,98.59
1782.00,98.59
1781.00,98.58
1780.00,98.57
1779.00,98.56
1778.00,98.54
1777.00,98.52
1776.00,98.48
1775.00,98.45
1774.00,98.45
1773.00,98.45
1772.00,98.45
1771.00,98.43
1770.00,98.41
1769.00,98.40
1768.00,98.39
1767.00,98.39
1766.00,98.39
1765.00,98.36
1764.00,98.33
1763.00,98.31
1762.00,98.31
1761.00,98.29
1760.00,98.27
1759.00,98.25
1758.00,98.23
1757.00,98.22
1756.00,98.20
1755.00,98.17
1754.00,98.12
1753.00,98.07
1752.00,98.02
1751.00,97.99
1750.00,97.97
1749.00,97.96
1748.00,97.93
1747.00,97.91
1746.00,97.89
1745.00,97.85
1744.00,97.80
1743.00,97.76
1742.00,97.72
1741.00,97.68
1740.00,97.64
1739.00,97.59
1738.00,97.52
1737.00,97.43
1736.00,97.35
1735.00,97.30
1734.00,97.28
1733.00,97.25
1732.00,97.21
1731.00,97.18
1730.00,97.16
1729.00,97.13
1728.00,97.09
1727.00,97.05
1726.00,97.01
1725.00,96.97
1724.00,96.93
1723.00,96.88
1722.00,96.83
1721.00,96.76
1720.00,96.68
1719.00,96.62
1718.00,96.59
1717.00,96.56
1716.00,96.53
1715.00,96.51
1714.00,96.49
1713.00,96.45
1712.00,96.41
1711.00,96.35
1710.00,96.29
1709.00,96.22
1708.00,96.15
1707.00,96.08
1706.00,96.01
1705.00,95.92
1704.00,95.82
1703.00,95.71
1702.00,95.63
1701.00,95.54
1700.00,95.44
1699.00,95.34
1698.00,95.25
1697.00,95.16
1696.00,95.06
1695.00,94.95
1694.00,94.84
1693.00,94.73
1692.00,94.61
1691.00,94.48
1690.00,94.34
1689.00,94.18
1688.00,94.01
1687.00,93.84
1686.00,93.69
1685.00,93.52
1684.00,93.32
1683.00,93.13
1682.00,92.98
1681.00,92.84
1680.00,92.68
1679.00,92.52
1678.00,92.36
1677.00,92.18
1676.00,91.98
1675.00,91.77
1674.00,91.58
1673.00,91.40
1672.00,91.22
1671.00,91.04
1670.00,90.85
1669.00,90.66
1668.00,90.48
1667.00,90.32
1666.00,90.17
1665.00,90.01
1664.00,89.84
1663.00,89.66
1662.00,89.50
1661.00,89.34
1660.00,89.19
1659.00,89.04
1658.00,88.90
1657.00,88.75
1656.00,88.59
1655.00,88.45
1654.00,88.35
1653.00,88.24
1652.00,88.14
1651.00,88.07
1650.00,88.01
1649.00,87.96
1648.00,87.90
1647.00,87.86
1646.00,87.83
1645.00,87.81
1644.00,87.78
1643.00,87.77
1642.00,87.76
1641.00,87.76
1640.00,87.75
1639.00,87.74
1638.00,87.74
1637.00,87.78
1636.00,87.86
1635.00,87.95
1634.00,88.04
1633.00,88.11
1632.00,88.17
1631.00,88.23
1630.00,88.30
1629.00,88.39
1628.00,88.47
1627.00,88.55
1626.00,88.65
1625.00,88.75
1624.00,88.87
1623.00,88.99
1622.00,89.10
1621.00,89.19
1620.00,89.25
1619.00,89.34
1618.00,89.45
1617.00,89.59
1616.00,89.72
1615.00,89.82
1614.00,89.90
1613.00,89.99
1612.00,90.06
1611.00,90.14
1610.00,90.23
1609.00,90.32
1608.00,90.40
1607.00,90.48
1606.00,90.56
1605.00,90.63
1604.00,90.70
1603.00,90.76
1602.00,90.83
1601.00,90.90
1600.00,90.97
1599.00,91.03
1598.00,91.09
1597.00,91.16
1596.00,91.22
1595.00,91.29
1594.00,91.37
1593.00,91.44
1592.00,91.52
1591.00,91.59
1590.00,91.67
1589.00,91.75
1588.00,91.82
1587.00,91.90
1586.00,91.98
1585.00,92.06
1584.00,92.14
1583.00,92.22
1582.00,92.30
1581.00,92.37
1580.00,92.43
1579.00,92.48
1578.00,92.56
1577.00,92.66
1576.00,92.78
1575.00,92.88
1574.00,92.95
1573.00,93.00
1572.00,93.05
1571.00,93.12
1570.00,93.20
1569.00,93.29
1568.00,93.35
1567.00,93.41
1566.00,93.47
1565.00,93.53
1564.00,93.56
1563.00,93.56
1562.00,93.54
1561.00,93.54
1560.00,93.59
1559.00,93.70
1558.00,93.79
1557.00,93.83
1556.00,93.86
1555.00,93.89
1554.00,93.93
1553.00,93.95
1552.00,93.96
1551.00,93.98
1550.00,94.01
1549.00,94.03
1548.00,94.04
1547.00,94.03
1546.00,94.02
1545.00,94.01
1544.00,93.99
1543.00,94.00
1542.00,94.02
1541.00,94.06
1540.00,94.11
1539.00,94.14
1538.00,94.15
1537.00,94.13
1536.00,94.11
1535.00,94.09
1534.00,94.09
1533.00,94.10
1532.00,94.09
1531.00,94.09
1530.00,94.07
1529.00,94.05
1528.00,94.01
1527.00,93.98
1526.00,93.96
1525.00,93.92
1524.00,93.87
1523.00,93.83
1522.00,93.80
1521.00,93.77
1520.00,93.73
1519.00,93.70
1518.00,93.67
1517.00,93.62
1516.00,93.57
1515.00,93.52
1514.00,93.48
1513.00,93.42
1512.00,93.35
1511.00,93.26
1510.00,93.16
1509.00,93.06
1508.00,92.97
1507.00,92.91
1506.00,92.86
1505.00,92.80
1504.00,92.73
1503.00,92.65
1502.00,92.56
1501.00,92.44
1500.00,92.31
1499.00,92.18
1498.00,92.04
1497.00,91.86
1496.00,91.66
1495.00,91.48
1494.00,91.29
1493.00,91.09
1492.00,90.86
1491.00,90.62
1490.00,90.39
1489.00,90.14
1488.00,89.90
1487.00,89.67
1486.00,89.43
1485.00,89.17
1484.00,88.88
1483.00,88.59
1482.00,88.28
1481.00,87.93
1480.00,87.57
1479.00,87.22
1478.00,86.84
1477.00,86.43
1476.00,85.99
1475.00,85.57
1474.00,85.12
1473.00,84.62
1472.00,84.10
1471.00,83.65
1470.00,83.25
1469.00,82.85
1468.00,82.44
1467.00,82.01
1466.00,81.54
1465.00,81.05
1464.00,80.57
1463.00,80.16
1462.00,79.80
1461.00,79.45
1460.00,79.10
1459.00,78.76
1458.00,78.40
1457.00,78.01
1456.00,77.69
1455.00,77.49
1454.00,77.35
1453.00,77.21
1452.00,77.07
1451.00,76.94
1450.00,76.83
1449.00,76.70
1448.00,76.59
1447.00,76.50
1446.00,76.41
1445.00,76.31
1444.00,76.20
1443.00,76.08
1442.00,75.95
1441.00,75.80
1440.00,75.64
1439.00,75.48
1438.00,75.30
1437.00,75.10
1436.00,74.90
1435.00,74.74
1434.00,74.61
1433.00,74.47
1432.00,74.31
1431.00,74.14
1430.00,73.98
1429.00,73.81
1428.00,73.66
1427.00,73.52
1426.00,73.39
1425.00,73.25
1424.00,73.10
1423.00,72.98
1422.00,72.87
1421.00,72.74
1420.00,72.62
1419.00,72.51
1418.00,72.42
1417.00,72.36
1416.00,72.33
1415.00,72.32
1414.00,72.32
1413.00,72.30
1412.00,72.29
1411.00,72.30
1410.00,72.33
1409.00,72.36
1408.00,72.41
1407.00,72.48
1406.00,72.56
1405.00,72.66
1404.00,72.78
1403.00,72.92
1402.00,73.07
1401.00,73.22
1400.00,73.37
1399.00,73.54
1398.00,73.71
1397.00,73.85
1396.00,74.00
1395.00,74.16
1394.00,74.33
1393.00,74.48
1392.00,74.63
1391.00,74.75
1390.00,74.84
1389.00,74.91
1388.00,74.96
1387.00,75.01
1386.00,75.03
1385.00,75.04
1384.00,75.02
1383.00,74.99
1382.00,74.93
1381.00,74.85
1380.00,74.75
1379.00,74.65
1378.00,74.53
1377.00,74.40
1376.00,74.27
1375.00,74.15
1374.00,74.03
1373.00,73.92
1372.00,73.81
1371.00,73.71
1370.00,73.61
1369.00,73.51
1368.00,73.40
1367.00,73.31
1366.00,73.22
1365.00,73.12
1364.00,73.01
1363.00,72.92
1362.00,72.84
1361.00,72.77
1360.00,72.71
1359.00,72.65
1358.00,72.60
1357.00,72.53
1356.00,72.45
1355.00,72.37
1354.00,72.29
1353.00,72.21
1352.00,72.12
1351.00,72.03
1350.00,71.93
1349.00,71.83
1348.00,71.73
1347.00,71.65
1346.00,71.58
1345.00,71.52
1344.00,71.48
1343.00,71.45
1342.00,71.45
1341.00,71.47
1340.00,71.52
1339.00,71.61
1338.00,71.74
1337.00,71.89
1336.00,72.06
1335.00,72.25
1334.00,72.45
1333.00,72.65
1332.00,72.85
1331.00,73.05
1330.00,73.25
1329.00,73.44
1328.00,73.63
1327.00,73.81
1326.00,73.99
1325.00,74.15
1324.00,74.30
1323.00,74.45
1322.00,74.59
1321.00,74.71
1320.00,74.84
1319.00,74.97
1318.00,75.10
1317.00,75.23
1316.00,75.35
1315.00,75.49
1314.00,75.62
1313.00,75.76
1312.00,75.91
1311.00,76.06
1310.00,76.22
1309.00,76.38
1308.00,76.53
1307.00,76.69
1306.00,76.85
1305.00,76.99
1304.00,77.14
1303.00,77.29
1302.00,77.42
1301.00,77.55
1300.00,77.66
1299.00,77.76
1298.00,77.85
1297.00,77.92
1296.00,77.99
1295.00,78.04
1294.00,78.08
1293.00,78.11
1292.00,78.12
1291.00,78.12
1290.00,78.11
1289.00,78.09
1288.00,78.05
1287.00,78.01
1286.00,77.96
1285.00,77.91
1284.00,77.85
1283.00,77.79
1282.00,77.73
1281.00,77.66
1280.00,77.58
1279.00,77.50
1278.00,77.41
1277.00,77.30
1276.00,77.18
1275.00,77.04
1274.00,76.90
1273.00,76.73
1272.00,76.56
1271.00,76.38
1270.00,76.20
1269.00,76.01
1268.00,75.82
1267.00,75.64
1266.00,75.46
1265.00,75.28
1264.00,75.12
1263.00,74.98
1262.00,74.85
1261.00,74.75
1260.00,74.66
1259.00,74.60
1258.00,74.56
1257.00,74.53
1256.00,74.52
1255.00,74.51
1254.00,74.52
1253.00,74.53
1252.00,74.54
1251.00,74.56
1250.00,74.59
1249.00,74.61
1248.00,74.65
1247.00,74.68
1246.00,74.72
1245.00,74.76
1244.00,74.80
1243.00,74.84
1242.00,74.88
1241.00,74.93
1240.00,74.99
1239.00,75.05
1238.00,75.12
1237.00,75.18
1236.00,75.25
1235.00,75.33
1234.00,75.42
1233.00,75.50
1232.00,75.60
1231.00,75.71
1230.00,75.83
1229.00,75.98
1228.00,76.14
1227.00,76.32
1226.00,76.52
1225.00,76.73
1224.00,76.96
1223.00,77.19
1222.00,77.44
1221.00,77.69
1220.00,77.95
1219.00,78.20
1218.00,78.45
1217.00,78.69
1216.00,78.91
1215.00,79.13
1214.00,79.32
1213.00,79.48
1212.00,79.62
1211.00,79.73
1210.00,79.82
1209.00,79.88
1208.00,79.92
1207.00,79.94
1206.00,79.93
1205.00,79.90
1204.00,79.85
1203.00,79.79
1202.00,79.72
1201.00,79.65
1200.00,79.58
1199.00,79.52
1198.00,79.46
1197.00,79.40
1196.00,79.35
1195.00,79.32
1194.00,79.29
1193.00,79.26
1192.00,79.24
1191.00,79.23
1190.00,79.22
1189.00,79.22
1188.00,79.24
1187.00,79.26
1186.00,79.30
1185.00,79.34
1184.00,79.39
1183.00,79.44
1182.00,79.51
1181.00,79.57
1180.00,79.63
1179.00,79.69
1178.00,79.73
1177.00,79.75
1176.00,79.74
1175.00,79.69
1174.00,79.58
1173.00,79.41
1172.00,79.17
1171.00,78.86
1170.00,78.48
1169.00,78.01
1168.00,77.46
1167.00,76.83
1166.00,76.13
1165.00,75.36
1164.00,74.52
1163.00,73.64
1162.00,72.74
1161.00,71.81
1160.00,70.87
1159.00,69.94
1158.00,69.04
1157.00,68.17
1156.00,67.34
1155.00,66.57
1154.00,65.86
1153.00,65.22
1152.00,64.66
1151.00,64.18
1150.00,63.81
1149.00,63.52
1148.00,63.31
1147.00,63.20
1146.00,63.18
1145.00,63.24
1144.00,63.36
1143.00,63.53
1142.00,63.74
1141.00,63.96
1140.00,64.17
1139.00,64.37
1138.00,64.55
1137.00,64.70
1136.00,64.82
1135.00,64.90
1134.00,64.96
1133.00,64.98
1132.00,64.97
1131.00,64.94
1130.00,64.91
1129.00,64.84
1128.00,64.76
1127.00,64.65
1126.00,64.52
1125.00,64.34
1124.00,64.13
1123.00,63.89
1122.00,63.61
1121.00,63.28
1120.00,62.90
1119.00,62.46
1118.00,61.98
1117.00,61.42
1116.00,60.79
1115.00,60.12
1114.00,59.40
1113.00,58.64
1112.00,57.84
1111.00,57.04
1110.00,56.24
1109.00,55.45
1108.00,54.68
1107.00,53.97
1106.00,53.34
1105.00,52.78
1104.00,52.32
1103.00,51.96
1102.00,51.70
1101.00,51.54
1100.00,51.47
1099.00,51.47
1098.00,51.52
1097.00,51.57
1096.00,51.59
1095.00,51.57
1094.00,51.48
1093.00,51.26
1092.00,50.91
1091.00,50.43
1090.00,49.84
1089.00,49.12
1088.00,48.30
1087.00,47.43
1086.00,46.52
1085.00,45.58
1084.00,44.62
1083.00,43.69
1082.00,42.80
1081.00,41.95
1080.00,41.17
1079.00,40.46
1078.00,39.85
1077.00,39.30
1076.00,38.81
1075.00,38.41
1074.00,38.06
1073.00,37.74
1072.00,37.41
1071.00,37.10
1070.00,36.77
1069.00,36.40
1068.00,35.99
1067.00,35.55
1066.00,35.10
1065.00,34.61
1064.00,34.09
1063.00,33.57
1062.00,33.04
1061.00,32.49
1060.00,31.91
1059.00,31.34
1058.00,30.80
1057.00,30.26
1056.00,29.73
1055.00,29.24
1054.00,28.80
1053.00,28.39
1052.00,28.03
1051.00,27.76
1050.00,27.57
1049.00,27.42
1048.00,27.30
1047.00,27.21
1046.00,27.16
1045.00,27.09
1044.00,27.00
1043.00,26.90
1042.00,26.77
1041.00,26.58
1040.00,26.33
1039.00,26.05
1038.00,25.75
1037.00,25.39
1036.00,25.00
1035.00,24.58
1034.00,24.16
1033.00,23.71
1032.00,23.25
1031.00,22.81
1030.00,22.41
1029.00,22.02
1028.00,21.64
1027.00,21.32
1026.00,21.07
1025.00,20.85
1024.00,20.67
1023.00,20.54
1022.00,20.45
1021.00,20.39
1020.00,20.34
1019.00,20.33
1018.00,20.35
1017.00,20.36
1016.00,20.38
1015.00,20.41
1014.00,20.48
1013.00,20.56
1012.00,20.66
1011.00,20.83
1010.00,21.08
1009.00,21.42
1008.00,21.85
1007.00,22.41
1006.00,23.10
1005.00,23.91
1004.00,24.82
1003.00,25.83
1002.00,26.91
1001.00,28.01
1000.00,29.09
999.00,30.12
998.00,31.08
997.00,31.92
996.00,32.62
995.00,33.22
994.00,33.73
993.00,34.15
992.00,34.52
991.00,34.89
990.00,35.26
989.00,35.63
988.00,36.03
987.00,36.44
986.00,36.88
985.00,37.30
984.00,37.69
983.00,38.06
982.00,38.44
981.00,38.82
980.00,39.23
979.00,39.74
978.00,40.37
977.00,41.13
976.00,42.02
975.00,43.04
974.00,44.15
973.00,45.28
972.00,46.35
971.00,47.32
970.00,48.14
969.00,48.80
968.00,49.32
967.00,49.75
966.00,50.19
965.00,50.68
964.00,51.32
963.00,52.16
962.00,53.23
961.00,54.50
960.00,55.93
959.00,57.47
958.00,59.04
957.00,60.56
956.00,61.97
955.00,63.25
954.00,64.37
953.00,65.32
952.00,66.12
951.00,66.79
950.00,67.34
949.00,67.78
948.00,68.12
947.00,68.38
946.00,68.58
945.00,68.72
944.00,68.81
943.00,68.84
942.00,68.84
941.00,68.79
940.00,68.71
939.00,68.60
938.00,68.47
937.00,68.32
936.00,68.15
935.00,67.97
934.00,67.75
933.00,67.51
932.00,67.23
931.00,66.93
930.00,66.60
929.00,66.24
928.00,65.84
927.00,65.43
926.00,65.00
925.00,64.57
924.00,64.15
923.00,63.77
922.00,63.43
921.00,63.15
920.00,62.93
919.00,62.82
918.00,62.81
917.00,62.90
916.00,63.08
915.00,63.35
914.00,63.70
913.00,64.09
912.00,64.50
911.00,64.91
910.00,65.29
909.00,65.63
908.00,65.90
907.00,66.11
906.00,66.26
905.00,66.35
904.00,66.38
903.00,66.39
902.00,66.38
901.00,66.35
900.00,66.34
899.00,66.33
898.00,66.36
897.00,66.41
896.00,66.49
895.00,66.62
894.00,66.78
893.00,66.98
892.00,67.20
891.00,67.46
890.00,67.74
889.00,68.01
888.00,68.28
887.00,68.53
886.00,68.75
885.00,68.91
884.00,69.00
883.00,69.01
882.00,68.92
881.00,68.74
880.00,68.45
879.00,68.09
878.00,67.66
877.00,67.15
876.00,66.56
875.00,65.94
874.00,65.31
873.00,64.69
872.00,64.08
871.00,63.53
870.00,63.05
869.00,62.63
868.00,62.28
867.00,62.04
866.00,61.90
865.00,61.86
864.00,61.93
863.00,62.09
862.00,62.35
861.00,62.70
860.00,63.11
859.00,63.57
858.00,64.07
857.00,64.56
856.00,65.02
855.00,65.46
854.00,65.87
853.00,66.24
852.00,66.55
851.00,66.81
850.00,67.00
849.00,67.12
848.00,67.18
847.00,67.20
846.00,67.19
845.00,67.15
844.00,67.09
843.00,67.02
842.00,66.95
841.00,66.85
840.00,66.74
839.00,66.63
838.00,66.51
837.00,66.38
836.00,66.21
835.00,66.02
834.00,65.77
833.00,65.45
832.00,65.05
831.00,64.59
830.00,64.06
829.00,63.44
828.00,62.71
827.00,61.90
826.00,61.04
825.00,60.11
824.00,59.15
823.00,58.22
822.00,57.36
821.00,56.61
820.00,55.99
819.00,55.54
818.00,55.28
817.00,55.21
816.00,55.32
815.00,55.63
814.00,56.13
813.00,56.75
812.00,57.47
811.00,58.25
810.00,59.06
809.00,59.84
808.00,60.55
807.00,61.18
806.00,61.71
805.00,62.13
804.00,62.44
803.00,62.68
802.00,62.86
801.00,62.96
800.00,62.99
799.00,62.97
798.00,62.89
797.00,62.75
796.00,62.54
795.00,62.25
794.00,61.89
793.00,61.43
792.00,60.86
791.00,60.21
790.00,59.46
789.00,58.61
788.00,57.67
787.00,56.68
786.00,55.67
785.00,54.66
784.00,53.68
783.00,52.77
782.00,51.97
781.00,51.28
780.00,50.71
779.00,50.28
778.00,50.00
777.00,49.84
776.00,49.80
775.00,49.89
774.00,50.09
773.00,50.36
772.00,50.69
771.00,51.09
770.00,51.52
769.00,51.95
768.00,52.37
767.00,52.79
766.00,53.21
765.00,53.61
764.00,53.97
763.00,54.30
762.00,54.59
761.00,54.83
760.00,55.02
759.00,55.19
758.00,55.33
757.00,55.44
756.00,55.52
755.00,55.57
754.00,55.62
753.00,55.63
752.00,55.62
751.00,55.61
750.00,55.58
749.00,55.54
748.00,55.47
747.00,55.42
746.00,55.36
745.00,55.29
744.00,55.19
743.00,55.10
742.00,55.02
741.00,54.94
740.00,54.84
739.00,54.74
738.00,54.64
737.00,54.52
736.00,54.39
735.00,54.26
734.00,54.13
733.00,53.98
732.00,53.82
731.00,53.67
730.00,53.52
729.00,53.35
728.00,53.17
727.00,52.98
726.00,52.80
725.00,52.60
724.00,52.38
723.00,52.16
722.00,51.95
721.00,51.70
720.00,51.41
719.00,51.13
718.00,50.87
717.00,50.59
716.00,50.28
715.00,49.97
714.00,49.66
713.00,49.34
712.00,49.01
711.00,48.70
710.00,48.40
709.00,48.10
708.00,47.80
707.00,47.53
706.00,47.30
705.00,47.09
704.00,46.89
703.00,46.72
702.00,46.61
701.00,46.51
700.00,46.41
699.00,46.34
698.00,46.29
697.00,46.24
696.00,46.18
695.00,46.14
694.00,46.12
693.00,46.11
692.00,46.07
691.00,46.04
690.00,46.02
689.00,45.98
688.00,45.90
687.00,45.82
686.00,45.75
685.00,45.68
684.00,45.59
683.00,45.52
682.00,45.45
681.00,45.37
680.00,45.25
679.00,45.15
678.00,45.07
677.00,44.98
676.00,44.87
675.00,44.77
674.00,44.68
673.00,44.56
672.00,44.41
671.00,44.30
670.00,44.23
669.00,44.11
668.00,43.89
667.00,43.71
666.00,43.62
665.00,43.54
664.00,43.42
663.00,43.29
662.00,43.18
661.00,43.06
660.00,42.91
659.00,42.77
658.00,42.68
657.00,42.58
656.00,42.45
655.00,42.31
654.00,42.16
653.00,41.97
652.00,41.71
651.00,41.45
650.00,41.24
